unix_timestamp,bvp
1736211473659092,0.0
1736211473674717,6.577372550964355e-05
1736211473690342,0.0005977460532449186
1736211473705967,0.002734817797318101
1736211473721592,0.00854120496660471
1736211473737217,0.02065798081457615
1736211473752842,0.04119754955172539
1736211473768467,0.07004385441541672
1736211473784092,0.10365182906389236
1736211473799717,0.13550914824008942
1736211473815342,0.15819238126277924
1736211473830967,0.1660187691450119
1736211473846592,0.15704463422298431
1736211473862217,0.1332048922777176
1736211473877842,0.09841184318065643
1736211473893467,0.0561828650534153
1736211473909092,0.008664526045322418
1736211473924717,-0.042817726731300354
1736211473940342,-0.09687483310699463
1736211473955967,-0.1516229212284088
1736211473971592,-0.2046765685081482
1736211473987217,-0.25334158539772034
1736211474002842,-0.29493191838264465
1736211474018467,-0.3271506428718567
1736211474034092,-0.3484049439430237
1736211474049717,-0.35795119404792786
1736211474065342,-0.35586023330688477
1736211474080967,-0.3428725004196167
1736211474096592,-0.32022935152053833
1736211474112217,-0.28952473402023315
1736211474127842,-0.2525709569454193
1736211474143467,-0.2112674117088318
1736211474159092,-0.167480006814003
1736211474174717,-0.12293850630521774
1736211474190342,-0.07915014028549194
1736211474205967,-0.03733532875776291
1736211474221592,0.0016043931245803833
1736211474237217,0.03708436340093613
1736211474252842,0.06881390511989594
1736211474268467,0.09677469730377197
1736211474284092,0.12120509147644043
1736211474299717,0.14256052672863007
1736211474315342,0.16141583025455475
1736211474330967,0.17831604182720184
1736211474346592,0.19362440705299377
1736211474362217,0.20742571353912354
1736211474377842,0.21952030062675476
1736211474393467,0.22950175404548645
1736211474409092,0.2368735671043396
1736211474424717,0.24116021394729614
1736211474440342,0.24200114607810974
1736211474455967,0.23923197388648987
1736211474471592,0.23294034600257874
1736211474487217,0.22347235679626465
1736211474502842,0.21139109134674072
1736211474518467,0.19741669297218323
1736211474534092,0.18237164616584778
1736211474549717,0.16712962090969086
1736211474565342,0.1525489091873169
1736211474580967,0.1393902599811554
1736211474596592,0.12825186550617218
1736211474612217,0.11954519152641296
1736211474627842,0.1135069876909256
1736211474643467,0.11022999882698059
1736211474659092,0.10967154800891876
1736211474674717,0.11165641248226166
1736211474690342,0.11603255569934845
1736211474705967,0.12293090671300888
1736211474721592,0.13267669081687927
1736211474737217,0.14514565467834473
1736211474752842,0.15900830924510956
1736211474768467,0.17148058116436005
1736211474784092,0.1788414567708969
1736211474799717,0.1775052398443222
1736211474815342,0.1651706099510193
1736211474830967,0.14160187542438507
1736211474846592,0.1088167205452919
1736211474862217,0.07070886343717575
1736211474877842,0.03231549263000488
1736211474893467,-0.0009917691349983215
1736211474909092,-0.024149663746356964
1736211474924717,-0.03276056796312332
1736211474940342,-0.023249156773090363
1736211474955967,0.0069186389446258545
1736211474971592,0.05875804275274277
1736211474987217,0.13112184405326843
1736211475002842,0.22024627029895782
1736211475018467,0.31978461146354675
1736211475034092,0.42118126153945923
1736211475049717,0.5142050981521606
1736211475065342,0.5880250930786133
1736211475080967,0.6330980062484741
1736211475096592,0.6432890295982361
1736211475112217,0.6172565221786499
1736211475127842,0.5585011839866638
1736211475143467,0.474161833524704
1736211475159092,0.3731319010257721
1736211475174717,0.2642127275466919
1736211475190342,0.15488716959953308
1736211475205967,0.05087682604789734
1736211475221592,-0.04377135634422302
1736211475237217,-0.1264209747314453
1736211475252842,-0.19562995433807373
1736211475268467,-0.2510474920272827
1736211475284092,-0.2933999300003052
1736211475299717,-0.324496328830719
1736211475315342,-0.34712424874305725
1736211475330967,-0.36471888422966003
1736211475346592,-0.38081949949264526
1736211475362217,-0.3984827995300293
1736211475377842,-0.41986072063446045
1736211475393467,-0.44603100419044495
1736211475409092,-0.4770747423171997
1736211475424717,-0.5123184323310852
1736211475440342,-0.550508975982666
1736211475455967,-0.5898239612579346
1736211475471592,-0.6279830932617188
1736211475487217,-0.66266930103302
1736211475502842,-0.6920521259307861
1736211475518467,-0.715083122253418
1736211475534092,-0.7314813137054443
1736211475549717,-0.7415590286254883
1736211475565342,-0.7460215091705322
1736211475580967,-0.7457316517829895
1736211475596592,-0.7414586544036865
1736211475612217,-0.7337411046028137
1736211475627842,-0.7228761911392212
1736211475643467,-0.7089299559593201
1736211475659092,-0.6917687654495239
1736211475674717,-0.6711214780807495
1736211475690342,-0.6466027498245239
1736211475705967,-0.6176770925521851
1736211475721592,-0.5836675763130188
1736211475737217,-0.543974757194519
1736211475752842,-0.49848613142967224
1736211475768467,-0.44787511229515076
1736211475784092,-0.3935067057609558
1736211475799717,-0.3370065987110138
1736211475815342,-0.27983757853507996
1736211475830967,-0.22311536967754364
1736211475846592,-0.16757361590862274
1736211475862217,-0.1135360598564148
1736211475877842,-0.06094785034656525
1736211475893467,-0.009577527642250061
1736211475909092,0.0406469851732254
1736211475924717,0.08932673931121826
1736211475940342,0.13545390963554382
1736211475955967,0.17750033736228943
1736211475971592,0.21368570625782013
1736211475987217,0.2423575222492218
1736211476002842,0.2624205946922302
1736211476018467,0.2737620770931244
1736211476034092,0.27754372358322144
1736211476049717,0.2761111557483673
1736211476065342,0.2724970877170563
1736211476080967,0.2698651850223541
1736211476096592,0.27111855149269104
1736211476112217,0.27861082553863525
1736211476127842,0.2939393222332001
1736211476143467,0.3178948163986206
1736211476159092,0.3505857288837433
1736211476174717,0.39174413681030273
1736211476190342,0.4412088692188263
1736211476205967,0.4992206394672394
1736211476221592,0.5659652948379517
1736211476237217,0.640514612197876
1736211476252842,0.7199621200561523
1736211476268467,0.7992367744445801
1736211476284092,0.8716646432876587
1736211476299717,0.9301060438156128
1736211476315342,0.9682284593582153
1736211476330967,0.9816375970840454
1736211476346592,0.9687374234199524
1736211476362217,0.9309278726577759
1736211476377842,0.8720260262489319
1736211476393467,0.797408938407898
1736211476409092,0.713209331035614
1736211476424717,0.6254531741142273
1736211476440342,0.5390917658805847
1736211476455967,0.45720499753952026
1736211476471592,0.3807271420955658
1736211476487217,0.3087315857410431
1736211476502842,0.23897385597229004
1736211476518467,0.16841629147529602
1736211476534092,0.09373582899570465
1736211476549717,0.011932805180549622
1736211476565342,-0.07900109887123108
1736211476580967,-0.17949464917182922
1736211476596592,-0.28808993101119995
1736211476612217,-0.4017511308193207
1736211476627842,-0.5167096853256226
1736211476643467,-0.6290966272354126
1736211476659092,-0.7349684238433838
1736211476674717,-0.8301237225532532
1736211476690342,-0.9100882411003113
1736211476705967,-0.9703417420387268
1736211476721592,-1.0068299770355225
1736211476737217,-1.016702651977539
1736211476752842,-0.9990463852882385
1736211476768467,-0.9553751945495605
1736211476784092,-0.8896488547325134
1736211476799717,-0.8076436519622803
1736211476815342,-0.7158175706863403
1736211476830967,-0.6201393008232117
1736211476846592,-0.5252636671066284
1736211476862217,-0.43409091234207153
1736211476877842,-0.34761399030685425
1736211476893467,-0.2650737166404724
1736211476909092,-0.1844993382692337
1736211476924717,-0.10353483259677887
1736211476940342,-0.020250782370567322
1736211476955967,0.06624981760978699
1736211476971592,0.1555263102054596
1736211476987217,0.24597804248332977
1736211477002842,0.33538299798965454
1736211477018467,0.4212236702442169
1736211477034092,0.5005159378051758
1736211477049717,0.5695806741714478
1736211477065342,0.6243287920951843
1736211477080967,0.6610923409461975
1736211477096592,0.6775539517402649
1736211477112217,0.673327624797821
1736211477127842,0.6500214338302612
1736211477143467,0.6108273267745972
1736211477159092,0.5598069429397583
1736211477174717,0.5011318325996399
1736211477190342,0.4385293126106262
1736211477205967,0.3750329613685608
1736211477221592,0.31294044852256775
1736211477237217,0.25384703278541565
1736211477252842,0.19872169196605682
1736211477268467,0.1480623036623001
1736211477284092,0.10213227570056915
1736211477299717,0.061189066618680954
1736211477315342,0.02558121085166931
1736211477330967,-0.004347525537014008
1736211477346592,-0.028445638716220856
1736211477362217,-0.0467999167740345
1736211477377842,-0.05958325415849686
1736211477393467,-0.06692111492156982
1736211477409092,-0.06894049793481827
1736211477424717,-0.06594351679086685
1736211477440342,-0.05854812636971474
1736211477455967,-0.0477164201438427
1736211477471592,-0.03478143736720085
1736211477487217,-0.02155502885580063
1736211477502842,-0.010353799909353256
1736211477518467,-0.0038280226290225983
1736211477534092,-0.004692725837230682
1736211477549717,-0.015385432168841362
1736211477565342,-0.037595637142658234
1736211477580967,-0.07177978754043579
1736211477596592,-0.1168917641043663
1736211477612217,-0.1704736351966858
1736211477627842,-0.22906126081943512
1736211477643467,-0.28871089220046997
1736211477659092,-0.34548425674438477
1736211477674717,-0.3958783745765686
1736211477690342,-0.43727031350135803
1736211477705967,-0.4683453440666199
1736211477721592,-0.4892926812171936
1736211477737217,-0.5015348196029663
1736211477752842,-0.5069624781608582
1736211477768467,-0.5069845914840698
1736211477784092,-0.501933217048645
1736211477799717,-0.4911366105079651
1736211477815342,-0.4734809398651123
1736211477830967,-0.44806206226348877
1736211477846592,-0.41467779874801636
1736211477862217,-0.3741162419319153
1736211477877842,-0.3282160460948944
1736211477893467,-0.2796187400817871
1736211477909092,-0.23127204179763794
1736211477924717,-0.18595507740974426
1736211477940342,-0.14598321914672852
1736211477955967,-0.11291629076004028
1736211477971592,-0.08714818954467773
1736211477987217,-0.067599356174469
1736211478002842,-0.0518343448638916
1736211478018467,-0.036749035120010376
1736211478034092,-0.019565075635910034
1736211478049717,0.0014545023441314697
1736211478065342,0.026874452829360962
1736211478080967,0.05632263422012329
1736211478096592,0.08883291482925415
1736211478112217,0.1233280599117279
1736211478127842,0.15920644998550415
1736211478143467,0.19662848114967346
1736211478159092,0.23629853129386902
1736211478174717,0.27910634875297546
1736211478190342,0.32584148645401
1736211478205967,0.3768327832221985
1736211478221592,0.4316049814224243
1736211478237217,0.4887700378894806
1736211478252842,0.5460861921310425
1736211478268467,0.6005522608757019
1736211478284092,0.6486061811447144
1736211478299717,0.6865830421447754
1736211478315342,0.7114691734313965
1736211478330967,0.7216981649398804
1736211478346592,0.7174903154373169
1736211478362217,0.7004632949829102
1736211478377842,0.6727962493896484
1736211478393467,0.636488676071167
1736211478409092,0.5931190252304077
1736211478424717,0.5441539287567139
1736211478440342,0.49145370721817017
1736211478455967,0.4375752806663513
1736211478471592,0.3857949376106262
1736211478487217,0.33989614248275757
1736211478502842,0.3036516308784485
1736211478518467,0.2800225615501404
1736211478534092,0.27040672302246094
1736211478549717,0.2743293046951294
1736211478565342,0.28960034251213074
1736211478580967,0.31267717480659485
1736211478596592,0.339123398065567
1736211478612217,0.36421599984169006
1736211478627842,0.3836379945278168
1736211478643467,0.39407584071159363
1736211478659092,0.39359062910079956
1736211478674717,0.3817194104194641
1736211478690342,0.3592681884765625
1736211478705967,0.3277519643306732
1736211478721592,0.28864768147468567
1736211478737217,0.2428576797246933
1736211478752842,0.1905352622270584
1736211478768467,0.13114379346370697
1736211478784092,0.06388969719409943
1736211478799717,-0.011387452483177185
1736211478815342,-0.09348131716251373
1736211478830967,-0.17985165119171143
1736211478846592,-0.2671099901199341
1736211478862217,-0.35117632150650024
1736211478877842,-0.42711302638053894
1736211478893467,-0.48955243825912476
1736211478909092,-0.5339599251747131
1736211478924717,-0.5577675700187683
1736211478940342,-0.5606904625892639
1736211478955967,-0.5444307327270508
1736211478971592,-0.5121728181838989
1736211478987217,-0.46808862686157227
1736211479002842,-0.4168872535228729
1736211479018467,-0.3633846044540405
1736211479034092,-0.312103807926178
1736211479049717,-0.2669496238231659
1736211479065342,-0.23101074993610382
1736211479080967,-0.20651642978191376
1736211479096592,-0.19493615627288818
1736211479112217,-0.1971770077943802
1736211479127842,-0.21376439929008484
1736211479143467,-0.2448352724313736
1736211479159092,-0.28982457518577576
1736211479174717,-0.34689781069755554
1736211479190342,-0.41247785091400146
1736211479205967,-0.4813176393508911
1736211479221592,-0.5471603274345398
1736211479237217,-0.6036421060562134
1736211479252842,-0.6451616287231445
1736211479268467,-0.6675831079483032
1736211479284092,-0.6686785221099854
1736211479299717,-0.6482700705528259
1736211479315342,-0.6080921292304993
1736211479330967,-0.551444947719574
1736211479346592,-0.48273998498916626
1736211479362217,-0.4069742262363434
1736211479377842,-0.32913124561309814
1736211479393467,-0.25360554456710815
1736211479409092,-0.18378981947898865
1736211479424717,-0.12188379466533661
1736211479440342,-0.06890411674976349
1736211479455967,-0.024839159101247787
1736211479471592,0.011112426407635212
1736211479487217,0.04026234894990921
1736211479502842,0.06414671987295151
1736211479518467,0.08427190780639648
1736211479534092,0.10192777216434479
1736211479549717,0.11808528006076813
1736211479565342,0.13337089121341705
1736211479580967,0.14809361100196838
1736211479596592,0.16229556500911713
1736211479612217,0.17581094801425934
1736211479627842,0.18835002183914185
1736211479643467,0.1996261179447174
1736211479659092,0.2094784677028656
1736211479674717,0.21792684495449066
1736211479690342,0.2252020239830017
1736211479705967,0.23179270327091217
1736211479721592,0.23839648067951202
1736211479737217,0.24571098387241364
1736211479752842,0.2541976571083069
1736211479768467,0.2639600336551666
1736211479784092,0.2747587263584137
1736211479799717,0.28612980246543884
1736211479815342,0.297539085149765
1736211479830967,0.30847683548927307
1736211479846592,0.3184739947319031
1736211479862217,0.32711073756217957
1736211479877842,0.33403974771499634
1736211479893467,0.33895280957221985
1736211479909092,0.3414439260959625
1736211479924717,0.3408724367618561
1736211479940342,0.3364192843437195
1736211479955967,0.32734882831573486
1736211479971592,0.31325414776802063
1736211479987217,0.2941427528858185
1736211480002842,0.27043306827545166
1736211480018467,0.2429400086402893
1736211480034092,0.21282188594341278
1736211480049717,0.18144850432872772
1736211480065342,0.15021933615207672
1736211480080967,0.12040533125400543
1736211480096592,0.0930386483669281
1736211480112217,0.06880643963813782
1736211480127842,0.047945261001586914
1736211480143467,0.03020736575126648
1736211480159092,0.014937743544578552
1736211480174717,0.0012294650077819824
1736211480190342,-0.011887505650520325
1736211480205967,-0.02526801824569702
1736211480221592,-0.039512768387794495
1736211480237217,-0.054864153265953064
1736211480252842,-0.07115203142166138
1736211480268467,-0.0878085345029831
1736211480284092,-0.10391886532306671
1736211480299717,-0.11829480528831482
1736211480315342,-0.12964124977588654
1736211480330967,-0.1368793547153473
1736211480346592,-0.13952505588531494
1736211480362217,-0.137854665517807
1736211480377842,-0.1327056735754013
1736211480393467,-0.12510187923908234
1736211480409092,-0.11598609387874603
1736211480424717,-0.10611756145954132
1736211480440342,-0.09605583548545837
1736211480455967,-0.08617551624774933
1736211480471592,-0.07670453190803528
1736211480487217,-0.06784871220588684
1736211480502842,-0.060027822852134705
1736211480518467,-0.05408455431461334
1736211480534092,-0.051258549094200134
1736211480549717,-0.052866533398628235
1736211480565342,-0.05985845625400543
1736211480580967,-0.07249099016189575
1736211480596592,-0.09020066261291504
1736211480612217,-0.11162880063056946
1736211480627842,-0.1348702609539032
1736211480643467,-0.15800485014915466
1736211480659092,-0.1796370893716812
1736211480674717,-0.1991066187620163
1736211480690342,-0.2163967490196228
1736211480705967,-0.23198634386062622
1736211480721592,-0.246723473072052
1736211480737217,-0.2616363763809204
1736211480752842,-0.277690052986145
1736211480768467,-0.2955671548843384
1736211480784092,-0.31546157598495483
1736211480799717,-0.33691537380218506
1736211480815342,-0.3588947653770447
1736211480830967,-0.3801249861717224
1736211480846592,-0.3993390202522278
1736211480862217,-0.41523343324661255
1736211480877842,-0.42634153366088867
1736211480893467,-0.43107926845550537
1736211480909092,-0.4279980957508087
1736211480924717,-0.4161372780799866
1736211480940342,-0.39535266160964966
1736211480955967,-0.36650341749191284
1736211480971592,-0.3314005434513092
1736211480987217,-0.29252365231513977
1736211481002842,-0.25260090827941895
1736211481018467,-0.21416276693344116
1736211481034092,-0.17918521165847778
1736211481049717,-0.14890606701374054
1736211481065342,-0.12379737198352814
1736211481080967,-0.10362087190151215
1736211481096592,-0.0875362753868103
1736211481112217,-0.07427842915058136
1736211481127842,-0.06240183115005493
1736211481143467,-0.050551638007164
1736211481159092,-0.037709325551986694
1736211481174717,-0.023367203772068024
1736211481190342,-0.00759577751159668
1736211481205967,0.009024649858474731
1736211481221592,0.02561485767364502
1736211481237217,0.04129885137081146
1736211481252842,0.05549459159374237
1736211481268467,0.0680844858288765
1736211481284092,0.07940798252820969
1736211481299717,0.09011821448802948
1736211481315342,0.10099479556083679
1736211481330967,0.11276228725910187
1736211481346592,0.12592411041259766
1736211481362217,0.14063820242881775
1736211481377842,0.15668830275535583
1736211481393467,0.1735844612121582
1736211481409092,0.19073958694934845
1736211481424717,0.20762039721012115
1736211481440342,0.2238232046365738
1736211481455967,0.23907575011253357
1736211481471592,0.25318992137908936
1736211481487217,0.26601797342300415
1736211481502842,0.2774466276168823
1736211481518467,0.28740936517715454
1736211481534092,0.29587990045547485
1736211481549717,0.3028405010700226
1736211481565342,0.3082412779331207
1736211481580967,0.31197023391723633
1736211481596592,0.3138592839241028
1736211481612217,0.313738077878952
1736211481627842,0.3115118145942688
1736211481643467,0.30721795558929443
1736211481659092,0.3010280728340149
1736211481674717,0.29327940940856934
1736211481690342,0.2849256098270416
1736211481705967,0.27882054448127747
1736211481721592,0.28120291233062744
1736211481737217,0.3015782833099365
1736211481752842,0.3500845432281494
1736211481768467,0.4338398575782776
1736211481784092,0.554665744304657
1736211481799717,0.7090768218040466
1736211481815342,0.8897879719734192
1736211481830967,1.0874464511871338
1736211481846592,1.2912606000900269
1736211481862217,1.4898089170455933
1736211481877842,1.6750547885894775
1736211481893467,1.8447027206420898
1736211481909092,1.9937666654586792
1736211481924717,2.099592685699463
1736211481940342,2.116379737854004
1736211481955967,1.9895985126495361
1736211481971592,1.6844489574432373
1736211481987217,1.2097618579864502
1736211482002842,0.6221597194671631
1736211482018467,0.009029984474182129
1736211482034092,-0.5409259796142578
1736211482049717,-0.9660738706588745
1736211482065342,-1.2470860481262207
1736211482080967,-1.4059221744537354
1736211482096592,-1.494354248046875
1736211482112217,-1.5786339044570923
1736211482127842,-1.723231554031372
1736211482143467,-1.9761061668395996
1736211482159092,-2.359107494354248
1736211482174717,-2.864572763442993
1736211482190342,-3.456021547317505
1736211482205967,-4.072559356689453
1736211482221592,-4.63877010345459
1736211482237217,-5.079019069671631
1736211482252842,-5.331843852996826
1736211482268467,-5.3603901863098145
1736211482284092,-5.1566853523254395
1736211482299717,-4.739720344543457
1736211482315342,-4.1493401527404785
1736211482330967,-3.438368320465088
1736211482346592,-2.6645734310150146
1736211482362217,-1.8834022283554077
1736211482377842,-1.1421778202056885
1736211482393467,-0.4762526750564575
1736211482409092,0.09272217750549316
1736211482424717,0.5567301511764526
1736211482440342,0.9206546545028687
1736211482455967,1.2024502754211426
1736211482471592,1.433353066444397
1736211482487217,1.6557549238204956
1736211482502842,1.9227200746536255
1736211482518467,2.3032939434051514
1736211482534092,2.876924753189087
1736211482549717,3.6930861473083496
1736211482565342,4.714178085327148
1736211482580967,5.80006217956543
1736211482596592,6.758610725402832
1736211482612217,7.416170120239258
1736211482627842,7.655081272125244
1736211482643467,7.419118404388428
1736211482659092,6.712115287780762
1736211482674717,5.595792770385742
1736211482690342,4.180617332458496
1736211482705967,2.607914447784424
1736211482721592,1.0270968675613403
1736211482737217,-0.42565637826919556
1736211482752842,-1.6430038213729858
1736211482768467,-2.5554308891296387
1736211482784092,-3.1340222358703613
1736211482799717,-3.3877508640289307
1736211482815342,-3.3564960956573486
1736211482830967,-3.101405620574951
1736211482846592,-2.6943368911743164
1736211482862217,-2.207906723022461
1736211482877842,-1.7072850465774536
1736211482893467,-1.244415521621704
1736211482909092,-0.8549193143844604
1736211482924717,-0.5575332045555115
1736211482940342,-0.3556426465511322
1736211482955967,-0.24031472206115723
1736211482971592,-0.1941699981689453
1736211482987217,-0.1954422891139984
1736211483002842,-0.22169050574302673
1736211483018467,-0.2527928054332733
1736211483034092,-0.2730093002319336
1736211483049717,-0.27203264832496643
1736211483065342,-0.24509283900260925
1736211483080967,-0.19232118129730225
1736211483096592,-0.11764225363731384
1736211483112217,-0.027453452348709106
1736211483127842,0.07070231437683105
1736211483143467,0.1693105697631836
1736211483159092,0.2617747187614441
1736211483174717,0.3429703712463379
1736211483190342,0.4095165729522705
1736211483205967,0.45982980728149414
1736211483221592,0.4939810037612915
1736211483237217,0.5133891701698303
1736211483252842,0.5204235315322876
1736211483268467,0.5179756879806519
1736211483284092,0.509042501449585
1736211483299717,0.49636292457580566
1736211483315342,0.4821420907974243
1736211483330967,0.4678826332092285
1736211483346592,0.45434048771858215
1736211483362217,0.44160619378089905
1736211483377842,0.42927998304367065
1736211483393467,0.41669970750808716
1736211483409092,0.4031773805618286
1736211483424717,0.38817551732063293
1736211483440342,0.37134385108947754
1736211483455967,0.35240232944488525
1736211483471592,0.3309672176837921
1736211483487217,0.3064503073692322
1736211483502842,0.27812135219573975
1736211483518467,0.24533917009830475
1736211483534092,0.20784233510494232
1736211483549717,0.16596877574920654
1736211483565342,0.1207360327243805
1736211483580967,0.07375204563140869
1736211483596592,0.026967108249664307
1736211483612217,-0.01764395833015442
1736211483627842,-0.05836084485054016
1736211483643467,-0.09388372302055359
1736211483659092,-0.12335836887359619
1736211483674717,-0.14611530303955078
1736211483690342,-0.16114836931228638
1736211483705967,-0.16756030917167664
1736211483721592,-0.1670575737953186
1736211483737217,-0.16678521037101746
1736211483752842,-0.17955464124679565
1736211483768467,-0.2204737663269043
1736211483784092,-0.3013896048069
1736211483799717,-0.4262614846229553
1736211483815342,-0.590146541595459
1736211483830967,-0.7810748815536499
1736211483846592,-0.9823383688926697
1736211483862217,-1.1746299266815186
1736211483877842,-1.3385930061340332
1736211483893467,-1.4574627876281738
1736211483909092,-1.5188777446746826
1736211483924717,-1.5153694152832031
1736211483940342,-1.4441168308258057
1736211483955967,-1.307034969329834
1736211483971592,-1.1114213466644287
1736211483987217,-0.8702869415283203
1736211484002842,-0.6013194918632507
1736211484018467,-0.3243175148963928
1736211484034092,-0.058177217841148376
1736211484049717,0.18104258179664612
1736211484065342,0.38047343492507935
1736211484080967,0.530252993106842
1736211484096592,0.6240453720092773
1736211484112217,0.66025710105896
1736211484127842,0.6429656147956848
1736211484143467,0.5817263722419739
1736211484159092,0.4901365637779236
1736211484174717,0.3836187422275543
1736211484190342,0.27708056569099426
1736211484205967,0.18298602104187012
1736211484221592,0.11012721061706543
1736211484237217,0.06314414739608765
1736211484252842,0.04269438982009888
1736211484268467,0.046114325523376465
1736211484284092,0.06838756799697876
1736211484299717,0.1032308042049408
1736211484315342,0.14413577318191528
1736211484330967,0.18524384498596191
1736211484346592,0.2219756841659546
1736211484362217,0.2514317035675049
1736211484377842,0.27308619022369385
1736211484393467,0.29120004177093506
1736211484409092,0.3193160593509674
1736211484424717,0.3831222355365753
1736211484440342,0.5168541669845581
1736211484455967,0.7537466883659363
1736211484471592,1.1150808334350586
1736211484487217,1.6012725830078125
1736211484502842,2.187471866607666
1736211484518467,2.8253393173217773
1736211484534092,3.449268341064453
1736211484549717,3.9824390411376953
1736211484565342,4.3410491943359375
1736211484580967,4.441964149475098
1736211484596592,4.218808174133301
1736211484612217,3.6419172286987305
1736211484627842,2.731607437133789
1736211484643467,1.5581785440444946
1736211484659092,0.2294837236404419
1736211484674717,-1.1286346912384033
1736211484690342,-2.393157482147217
1736211484705967,-3.4614620208740234
1736211484721592,-4.2630791664123535
1736211484737217,-4.764822006225586
1736211484752842,-4.96977424621582
1736211484768467,-4.911437034606934
1736211484784092,-4.644784927368164
1736211484799717,-4.236047267913818
1736211484815342,-3.752859592437744
1736211484830967,-3.256019115447998
1736211484846592,-2.793592929840088
1736211484862217,-2.397284507751465
1736211484877842,-2.0802106857299805
1736211484893467,-1.8357726335525513
1736211484909092,-1.6385747194290161
1736211484924717,-1.4484302997589111
1736211484940342,-1.2177925109863281
1736211484955967,-0.9021689295768738
1736211484971592,-0.4714048504829407
1736211484987217,0.0817265510559082
1736211485002842,0.7383905649185181
1736211485018467,1.4564424753189087
1736211485034092,2.1775636672973633
1736211485049717,2.8364291191101074
1736211485065342,3.3687994480133057
1736211485080967,3.715376377105713
1736211485096592,3.8222618103027344
1736211485112217,3.64411997795105
1736211485127842,3.154013156890869
1736211485143467,2.3560142517089844
1736211485159092,1.2931904792785645
1736211485174717,0.04631686210632324
1736211485190342,-1.2769057750701904
1736211485205967,-2.558711528778076
1736211485221592,-3.689237594604492
1736211485237217,-4.58145809173584
1736211485252842,-5.180736064910889
1736211485268467,-5.4682745933532715
1736211485284092,-5.458975791931152
1736211485299717,-5.195021152496338
1736211485315342,-4.736858367919922
1736211485330967,-4.1533331871032715
1736211485346592,-3.512467384338379
1736211485362217,-2.8739800453186035
1736211485377842,-2.284198522567749
1736211485393467,-1.773551344871521
1736211485409092,-1.356469988822937
1736211485424717,-1.033236026763916
1736211485440342,-0.7931604981422424
1736211485455967,-0.6184300184249878
1736211485471592,-0.488006591796875
1736211485487217,-0.38108086585998535
1736211485502842,-0.2797362804412842
1736211485518467,-0.17064809799194336
1736211485534092,-0.04579722881317139
1736211485549717,0.0976862907409668
1736211485565342,0.2583359479904175
1736211485580967,0.43154358863830566
1736211485596592,0.6108706593513489
1736211485612217,0.7892709970474243
1736211485627842,0.9601030349731445
1736211485643467,1.117859959602356
1736211485659092,1.258595585823059
1736211485674717,1.380076289176941
1736211485690342,1.4817147254943848
1736211485705967,1.5643460750579834
1736211485721592,1.6299057006835938
1736211485737217,1.6810455322265625
1736211485752842,1.7207295894622803
1736211485768467,1.7518806457519531
1736211485784092,1.777133822441101
1736211485799717,1.7986668348312378
1736211485815342,1.8180797100067139
1736211485830967,1.83634352684021
1736211485846592,1.8537918329238892
1736211485862217,1.8701099157333374
1736211485877842,1.8843848705291748
1736211485893467,1.8952860832214355
1736211485909092,1.9013373851776123
1736211485924717,1.901191234588623
1736211485940342,1.893846035003662
1736211485955967,1.878769040107727
1736211485971592,1.855919599533081
1736211485987217,1.8256953954696655
1736211486002842,1.7888379096984863
1736211486018467,1.746322751045227
1736211486034092,1.6992473602294922
1736211486049717,1.6487226486206055
1736211486065342,1.5957733392715454
1736211486080967,1.5412474870681763
1736211486096592,1.485756516456604
1736211486112217,1.4296703338623047
1736211486127842,1.3731420040130615
1736211486143467,1.3161299228668213
1736211486159092,1.2584446668624878
1736211486174717,1.1998411417007446
1736211486190342,1.140127420425415
1736211486205967,1.079258918762207
1736211486221592,1.0173836946487427
1736211486237217,0.9548096060752869
1736211486252842,0.891916036605835
1736211486268467,0.8290706872940063
1736211486284092,0.7665867805480957
1736211486299717,0.704710066318512
1736211486315342,0.643616795539856
1736211486330967,0.5834161043167114
1736211486346592,0.5241605043411255
1736211486362217,0.46586573123931885
1736211486377842,0.40853387117385864
1736211486393467,0.3521750569343567
1736211486409092,0.29682669043540955
1736211486424717,0.24256597459316254
1736211486440342,0.1895015388727188
1736211486455967,0.1377379596233368
1736211486471592,0.08732732385396957
1736211486487217,0.038231223821640015
1736211486502842,-0.009678900241851807
1736211486518467,-0.056563541293144226
1736211486534092,-0.1025235503911972
1736211486549717,-0.14753247797489166
1736211486565342,-0.19142507016658783
1736211486580967,-0.2339310646057129
1736211486596592,-0.2747274935245514
1736211486612217,-0.3134976923465729
1736211486627842,-0.3499985337257385
1736211486643467,-0.38412970304489136
1736211486659092,-0.4159812033176422
1736211486674717,-0.44583314657211304
1736211486690342,-0.47410011291503906
1736211486705967,-0.5012349486351013
1736211486721592,-0.5276229381561279
1736211486737217,-0.5534961819648743
1736211486752842,-0.578889787197113
1736211486768467,-0.6036444306373596
1736211486784092,-0.6274505257606506
1736211486799717,-0.6499226689338684
1736211486815342,-0.6706868410110474
1736211486830967,-0.6894556283950806
1736211486846592,-0.7060705423355103
1736211486862217,-0.7205048203468323
1736211486877842,-0.7328370213508606
1736211486893467,-0.7432137727737427
1736211486909092,-0.7518150806427002
1736211486924717,-0.7588263154029846
1736211486940342,-0.7644181251525879
1736211486955967,-0.7687315344810486
1736211486971592,-0.7718648314476013
1736211486987217,-0.7738626003265381
1736211487002842,-0.7747113704681396
1736211487018467,-0.7743452191352844
1736211487034092,-0.7726628184318542
1736211487049717,-0.7695519328117371
1736211487065342,-0.764915943145752
1736211487080967,-0.758695662021637
1736211487096592,-0.7508827447891235
1736211487112217,-0.7415220141410828
1736211487127842,-0.7307022213935852
1736211487143467,-0.7185376882553101
1736211487159092,-0.7051481604576111
1736211487174717,-0.6906452178955078
1736211487190342,-0.6751298904418945
1736211487205967,-0.6587008237838745
1736211487221592,-0.6414653658866882
1736211487237217,-0.6235439777374268
1736211487252842,-0.6050629019737244
1736211487268467,-0.5861397981643677
1736211487284092,-0.566871166229248
1736211487299717,-0.5473282933235168
1736211487315342,-0.5275598764419556
1736211487330967,-0.5075951218605042
1736211487346592,-0.4874472916126251
1736211487362217,-0.4671182334423065
1736211487377842,-0.4466041326522827
1736211487393467,-0.4259006679058075
1736211487409092,-0.4050082564353943
1736211487424717,-0.38393768668174744
1736211487440342,-0.3627137541770935
1736211487455967,-0.3413742780685425
1736211487471592,-0.3199651837348938
1736211487487217,-0.29853498935699463
1736211487502842,-0.27712979912757874
1736211487518467,-0.25578731298446655
1736211487534092,-0.2345314919948578
1736211487549717,-0.21337297558784485
1736211487565342,-0.1923164576292038
1736211487580967,-0.17137163877487183
1736211487596592,-0.15056605637073517
1736211487612217,-0.129959374666214
1736211487627842,-0.10965210199356079
1736211487643467,-0.08978204429149628
1736211487659092,-0.0705106258392334
1736211487674717,-0.05200567841529846
1736211487690342,-0.03442639112472534
1736211487705967,-0.01791278086602688
1736211487721592,-0.002576654776930809
1736211487737217,0.011510934680700302
1736211487752842,0.024335570633411407
1736211487768467,0.0359531044960022
1736211487784092,0.046494659036397934
1736211487799717,0.0561579167842865
1736211487815342,0.06518421322107315
1736211487830967,0.07382621616125107
1736211487846592,0.08231332153081894
1736211487862217,0.09082401543855667
1736211487877842,0.09947425127029419
1736211487893467,0.10832704603672028
1736211487909092,0.11741764843463898
1736211487924717,0.12677356600761414
1736211487940342,0.13641497492790222
1736211487955967,0.1463460624217987
1736211487971592,0.15655282139778137
1736211487987217,0.16700676083564758
1736211488002842,0.1776665449142456
1736211488018467,0.18847672641277313
1736211488034092,0.19936752319335938
1736211488049717,0.21025389432907104
1736211488065342,0.22103160619735718
1736211488080967,0.23157379031181335
1736211488096592,0.2417331486940384
1736211488112217,0.25134995579719543
1736211488127842,0.2602652907371521
1736211488143467,0.26833808422088623
1736211488159092,0.27546343207359314
1736211488174717,0.28158748149871826
1736211488190342,0.2867150902748108
1736211488205967,0.2909075617790222
1736211488221592,0.2942699193954468
1736211488237217,0.2969309389591217
1736211488252842,0.2990225553512573
1736211488268467,0.30066391825675964
1736211488284092,0.3019500970840454
1736211488299717,0.3029453158378601
1736211488315342,0.30368056893348694
1736211488330967,0.30415499210357666
1736211488346592,0.304339736700058
1736211488362217,0.3041855990886688
1736211488377842,0.30363351106643677
1736211488393467,0.3026250898838043
1736211488409092,0.3011113703250885
1736211488424717,0.2990608811378479
1736211488440342,0.29646673798561096
1736211488455967,0.29334983229637146
1736211488471592,0.28975626826286316
1736211488487217,0.28574955463409424
1736211488502842,0.2813979685306549
1736211488518467,0.2767578959465027
1736211488534092,0.2718544602394104
1736211488549717,0.2666594684123993
1736211488565342,0.2610691487789154
1736211488580967,0.2548917531967163
1736211488596592,0.2478555291891098
1736211488612217,0.23963986337184906
1736211488627842,0.2299242913722992
1736211488643467,0.21844615042209625
1736211488659092,0.20506718754768372
1736211488674717,0.18984903395175934
1736211488690342,0.17307737469673157
1736211488705967,0.15516704320907593
1736211488721592,0.1365007758140564
1736211488737217,0.11730895191431046
1736211488752842,0.09764368087053299
1736211488768467,0.07749245315790176
1736211488784092,0.05702410638332367
1736211488799717,0.03673980385065079
1736211488815342,0.017278380692005157
1736211488830967,-0.0009599179029464722
1736211488846592,-0.017974384129047394
1736211488862217,-0.0340372696518898
1736211488877842,-0.0495050847530365
1736211488893467,-0.06469611078500748
1736211488909092,-0.07979967445135117
1736211488924717,-0.09479309618473053
1736211488940342,-0.10940041393041611
1736211488955967,-0.12311743199825287
1736211488971592,-0.13529515266418457
1736211488987217,-0.14525258541107178
1736211489002842,-0.15238073468208313
1736211489018467,-0.1562160849571228
1736211489034092,-0.15649038553237915
1736211489049717,-0.1531849205493927
1736211489065342,-0.14660170674324036
1736211489080967,-0.13738444447517395
1736211489096592,-0.12640473246574402
1736211489112217,-0.11455284804105759
1736211489127842,-0.10255596786737442
1736211489143467,-0.09089043736457825
1736211489159092,-0.07977892458438873
1736211489174717,-0.06923968344926834
1736211489190342,-0.05915732681751251
1736211489205967,-0.04935485124588013
1736211489221592,-0.039656683802604675
1736211489237217,-0.029935739934444427
1736211489252842,-0.02013823390007019
1736211489268467,-0.010284677147865295
1736211489284092,-0.00045349448919296265
1736211489299717,0.009239591658115387
1736211489315342,0.018656954169273376
1736211489330967,0.027652036398649216
1736211489346592,0.03608577698469162
1736211489362217,0.04384350776672363
1736211489377842,0.050845786929130554
1736211489393467,0.05705312639474869
1736211489409092,0.062464408576488495
1736211489424717,0.06710455566644669
1736211489440342,0.07099927961826324
1736211489455967,0.07414162904024124
1736211489471592,0.07646255195140839
1736211489487217,0.07782012224197388
1736211489502842,0.07801400870084763
1736211489518467,0.07682524621486664
1736211489534092,0.07408145815134048
1736211489549717,0.06973675638437271
1736211489565342,0.06396964937448502
1736211489580967,0.05732513964176178
1736211489596592,0.0508393794298172
1736211489612217,0.045996829867362976
1736211489627842,0.0445113331079483
1736211489643467,0.04822617024183273
1736211489659092,0.05925523117184639
1736211489674717,0.07968999445438385
1736211489690342,0.1103995144367218
1736211489705967,0.14984500408172607
1736211489721592,0.19401328265666962
1736211489737217,0.23737575113773346
1736211489752842,0.2741069495677948
1736211489768467,0.2990399897098541
1736211489784092,0.3083083927631378
1736211489799717,0.29980701208114624
1736211489815342,0.2734832167625427
1736211489830967,0.23145051300525665
1736211489846592,0.1783086061477661
1736211489862217,0.12166035175323486
1736211489877842,0.07138575613498688
1736211489893467,0.03746102750301361
1736211489909092,0.02834312617778778
1736211489924717,0.05131830275058746
1736211489940342,0.11937868595123291
1736211489955967,0.26462411880493164
1736211489971592,0.5324721932411194
1736211489987217,0.9369547963142395
1736211490002842,1.4145749807357788
1736211490018467,1.8280277252197266
1736211490034092,2.016040802001953
1736211490049717,1.8503613471984863
1736211490065342,1.2733030319213867
1736211490080967,0.3094462752342224
1736211490096592,-0.944435179233551
1736211490112217,-2.343240261077881
1736211490127842,-3.723057270050049
1736211490143467,-4.929611682891846
1736211490159092,-5.840777397155762
1736211490174717,-6.380447864532471
1736211490190342,-6.523205757141113
1736211490205967,-6.290825366973877
1736211490221592,-5.742319107055664
1736211490237217,-4.959597587585449
1736211490252842,-4.030888080596924
1736211490268467,-3.034196376800537
1736211490284092,-2.02683687210083
1736211490299717,-1.047825813293457
1736211490315342,-0.1279534101486206
1736211490330967,0.7062351107597351
1736211490346592,1.4400994777679443
1736211490362217,2.0901641845703125
1736211490377842,2.736410617828369
1736211490393467,3.5455145835876465
1736211490409092,4.737242221832275
1736211490424717,6.492015361785889
1736211490440342,8.863136291503906
1736211490455967,11.742581367492676
1736211490471592,14.88080883026123
1736211490487217,17.94185447692871
1736211490502842,20.572019577026367
1736211490518467,22.46345329284668
1736211490534092,23.401050567626953
1736211490549717,23.28684425354004
1736211490565342,22.14181137084961
1736211490580967,20.08867835998535
1736211490596592,17.318965911865234
1736211490612217,14.056873321533203
1736211490627842,10.539369583129883
1736211490643467,7.007323741912842
1736211490659092,3.6858811378479004
1736211490674717,0.7546601295471191
1736211490690342,-1.6773061752319336
1736211490705967,-3.5909857749938965
1736211490721592,-5.0765862464904785
1736211490737217,-6.337746620178223
1736211490752842,-7.654271602630615
1736211490768467,-9.305241584777832
1736211490784092,-11.486701011657715
1736211490799717,-14.257476806640625
1736211490815342,-17.525867462158203
1736211490830967,-21.072065353393555
1736211490846592,-24.59404754638672
1736211490862217,-27.763856887817383
1736211490877842,-30.28213882446289
1736211490893467,-31.921566009521484
1736211490909092,-32.553680419921875
1736211490924717,-32.15762710571289
1736211490940342,-30.81241226196289
1736211490955967,-28.67652130126953
1736211490971592,-25.959850311279297
1736211490987217,-22.89317512512207
1736211491002842,-19.699779510498047
1736211491018467,-16.572690963745117
1736211491034092,-13.659510612487793
1736211491049717,-11.055408477783203
1736211491065342,-8.80362606048584
1736211491080967,-6.901898384094238
1736211491096592,-5.312619209289551
1736211491112217,-3.973806381225586
1736211491127842,-2.806936264038086
1736211491143467,-1.7201342582702637
1736211491159092,-0.6084589958190918
1736211491174717,0.6421642303466797
1736211491190342,2.130753517150879
1736211491205967,3.8985795974731445
1736211491221592,5.904707908630371
1736211491237217,8.039447784423828
1736211491252842,10.156438827514648
1736211491268467,12.10338020324707
1736211491284092,13.746313095092773
1736211491299717,14.98725414276123
1736211491315342,15.774328231811523
1736211491330967,16.103591918945312
1736211491346592,16.01351547241211
1736211491362217,15.574569702148438
1736211491377842,14.876457214355469
1736211491393467,14.01510238647461
1736211491409092,13.081110000610352
1736211491424717,12.150949478149414
1736211491440342,11.281611442565918
1736211491455967,10.508861541748047
1736211491471592,9.848688125610352
1736211491487217,9.30105209350586
1736211491502842,8.854701042175293
1736211491518467,8.491779327392578
1736211491534092,8.191475868225098
1736211491549717,7.932615756988525
1736211491565342,7.69545841217041
1736211491580967,7.462912082672119
1736211491596592,7.221159934997559
1736211491612217,6.959693908691406
1736211491627842,6.670975685119629
1736211491643467,6.350158214569092
1736211491659092,5.995143890380859
1736211491674717,5.606901168823242
1736211491690342,5.189669132232666
1736211491705967,4.7507123947143555
1736211491721592,4.299551010131836
1736211491737217,3.846776008605957
1736211491752842,3.402678966522217
1736211491768467,2.975919723510742
1736211491784092,2.572507858276367
1736211491799717,2.1953165531158447
1736211491815342,1.8441764116287231
1736211491830967,1.5164469480514526
1736211491846592,1.2079136371612549
1736211491862217,0.9138717651367188
1736211491877842,0.630224347114563
1736211491893467,0.3543787896633148
1736211491909092,0.08573302626609802
1736211491924717,-0.17435985803604126
1736211491940342,-0.4230954647064209
1736211491955967,-0.6569993495941162
1736211491971592,-0.8727692365646362
1736211491987217,-1.0680025815963745
1736211492002842,-1.2416774034500122
1736211492018467,-1.3943175077438354
1736211492034092,-1.527847170829773
1736211492049717,-1.6451945304870605
1736211492065342,-1.7497543096542358
1736211492080967,-1.8448467254638672
1736211492096592,-1.9332997798919678
1736211492112217,-2.0172417163848877
1736211492127842,-2.0980923175811768
1736211492143467,-2.1766538619995117
1736211492159092,-2.2532076835632324
1736211492174717,-2.3275725841522217
1736211492190342,-2.3991386890411377
1736211492205967,-2.46691632270813
1736211492221592,-2.5296339988708496
1736211492237217,-2.585895538330078
1736211492252842,-2.6343765258789062
1736211492268467,-2.6740057468414307
1736211492284092,-2.704092025756836
1736211492299717,-2.724386215209961
1736211492315342,-2.7350831031799316
1736211492330967,-2.7367606163024902
1736211492346592,-2.7302680015563965
1736211492362217,-2.716604232788086
1736211492377842,-2.6968257427215576
1736211492393467,-2.6720008850097656
1736211492409092,-2.643195390701294
1736211492424717,-2.6114609241485596
1736211492440342,-2.577786684036255
1736211492455967,-2.543008327484131
1736211492471592,-2.5077085494995117
1736211492487217,-2.472155809402466
1736211492502842,-2.436291217803955
1736211492518467,-2.399749517440796
1736211492534092,-2.3619167804718018
1736211492549717,-2.3220250606536865
1736211492565342,-2.2792558670043945
1736211492580967,-2.232821226119995
1736211492596592,-2.182025909423828
1736211492612217,-2.126343011856079
1736211492627842,-2.0655171871185303
1736211492643467,-1.9996620416641235
1736211492659092,-1.9292969703674316
1736211492674717,-1.8553030490875244
1736211492690342,-1.7788124084472656
1736211492705967,-1.7010642290115356
1736211492721592,-1.6232436895370483
1736211492737217,-1.546264410018921
1736211492752842,-1.4704384803771973
1736211492768467,-1.3952618837356567
1736211492784092,-1.3197119235992432
1736211492799717,-1.2429054975509644
1736211492815342,-1.1644951105117798
1736211492830967,-1.0845404863357544
1736211492846592,-1.0031167268753052
1736211492862217,-0.920251727104187
1736211492877842,-0.8369186520576477
1736211492893467,-0.7568013668060303
1736211492909092,-0.687071681022644
1736211492924717,-0.6370826363563538
1736211492940342,-0.6161954402923584
1736211492955967,-0.6326653361320496
1736211492971592,-0.6939573287963867
1736211492987217,-0.8068181276321411
1736211493002842,-0.974499523639679
1736211493018467,-1.1903079748153687
1736211493034092,-1.4292556047439575
1736211493049717,-1.6439905166625977
1736211493065342,-1.7799838781356812
1736211493080967,-1.813712477684021
1736211493096592,-1.7831497192382812
1736211493112217,-1.7794301509857178
1736211493127842,-1.9077293872833252
1736211493143467,-2.24530029296875
1736211493159092,-2.8147621154785156
1736211493174717,-3.5775513648986816
1736211493190342,-4.444457530975342
1736211493205967,-5.2964768409729
1736211493221592,-6.009098052978516
1736211493237217,-6.474613666534424
1736211493252842,-6.618688583374023
1736211493268467,-6.409121036529541
1736211493284092,-5.856630325317383
1736211493299717,-5.009189605712891
1736211493315342,-3.942133903503418
1736211493330967,-2.7459287643432617
1736211493346592,-1.5130956172943115
1736211493362217,-0.3258819580078125
1736211493377842,0.7536988258361816
1736211493393467,1.690868616104126
1736211493409092,2.4837942123413086
1736211493424717,3.17260479927063
1736211493440342,3.850706100463867
1736211493455967,4.6589484214782715
1736211493471592,5.741820812225342
1736211493487217,7.175809860229492
1736211493502842,8.909595489501953
1736211493518467,10.756498336791992
1736211493534092,12.446805953979492
1736211493549717,13.707744598388672
1736211493565342,14.334545135498047
1736211493580967,14.234407424926758
1736211493596592,13.434040069580078
1736211493612217,12.052332878112793
1736211493627842,10.258218765258789
1736211493643467,8.236186981201172
1736211493659092,6.165561199188232
1736211493674717,4.207561016082764
1736211493690342,2.4948525428771973
1736211493705967,1.1224231719970703
1736211493721592,0.14074552059173584
1736211493737217,-0.44669806957244873
1736211493752842,-0.6792540550231934
1736211493768467,-0.628146767616272
1736211493784092,-0.3817628026008606
1736211493799717,-0.031160712242126465
1736211493815342,0.3417294919490814
1736211493830967,0.6723220944404602
1736211493846592,0.9176821708679199
1736211493862217,1.0570273399353027
1736211493877842,1.0893523693084717
1736211493893467,1.0296294689178467
1736211493909092,0.9045647978782654
1736211493924717,0.7479285597801208
1736211493940342,0.5953012108802795
1736211493955967,0.4788655638694763
1736211493971592,0.4230760931968689
1736211493987217,0.4410894513130188
1736211494002842,0.5314940810203552
1736211494018467,0.6764500737190247
1736211494034092,0.8438504934310913
1736211494049717,0.9944766163825989
1736211494065342,1.0913223028182983
1736211494080967,1.106487512588501
1736211494096592,1.0232588052749634
1736211494112217,0.8353509902954102
1736211494127842,0.5474715232849121
1736211494143467,0.1789935827255249
1736211494159092,-0.2318723201751709
1736211494174717,-0.6285586357116699
1736211494190342,-0.9444267749786377
1736211494205967,-1.1161686182022095
1736211494221592,-1.0965906381607056
1736211494237217,-0.863373875617981
1736211494252842,-0.42254638671875
1736211494268467,0.19321632385253906
1736211494284092,0.929476261138916
1736211494299717,1.7171263694763184
1736211494315342,2.481494188308716
1736211494330967,3.1505990028381348
1736211494346592,3.660006523132324
1736211494362217,3.9558684825897217
1736211494377842,3.9981563091278076
1736211494393467,3.762052536010742
1736211494409092,3.23468279838562
1736211494424717,2.409583568572998
1736211494440342,1.285468578338623
1736211494455967,-0.12689542770385742
1736211494471592,-1.7923471927642822
1736211494487217,-3.6406846046447754
1736211494502842,-5.564966678619385
1736211494518467,-7.431316375732422
1736211494534092,-9.097451210021973
1736211494549717,-10.434961318969727
1736211494565342,-11.349565505981445
1736211494580967,-11.794106483459473
1736211494596592,-11.77204704284668
1736211494612217,-11.332393646240234
1736211494627842,-10.558656692504883
1736211494643467,-9.554899215698242
1736211494659092,-8.431527137756348
1736211494674717,-7.293104648590088
1736211494690342,-6.22898006439209
1736211494705967,-5.305810928344727
1736211494721592,-4.562358856201172
1736211494737217,-4.008360862731934
1736211494752842,-3.6273131370544434
1736211494768467,-3.381542205810547
1736211494784092,-3.2190182209014893
1736211494799717,-3.081148147583008
1736211494815342,-2.9093077182769775
1736211494830967,-2.64912748336792
1736211494846592,-2.255262613296509
1736211494862217,-1.6999342441558838
1736211494877842,-0.9831910133361816
1736211494893467,-0.13837413489818573
1736211494909092,0.7714202404022217
1736211494924717,1.6652226448059082
1736211494940342,2.460695266723633
1736211494955967,3.089776039123535
1736211494971592,3.5087199211120605
1736211494987217,3.701399326324463
1736211495002842,3.6775567531585693
1736211495018467,3.467935800552368
1736211495034092,3.117661237716675
1736211495049717,2.6790695190429688
1736211495065342,2.20507550239563
1736211495080967,1.7437199354171753
1736211495096592,1.334098219871521
1736211495112217,1.0037204027175903
1736211495127842,0.7673174142837524
1736211495143467,0.6270498037338257
1736211495159092,0.5740368962287903
1736211495174717,0.5909870266914368
1736211495190342,0.65544193983078
1736211495205967,0.7430627346038818
1736211495221592,0.8306730389595032
1736211495237217,0.8990345001220703
1736211495252842,0.9351065158843994
1736211495268467,0.9332214593887329
1736211495284092,0.8947741389274597
1736211495299717,0.8266041278839111
1736211495315342,0.7387033700942993
1736211495330967,0.6419106721878052
1736211495346592,0.5459860563278198
1736211495362217,0.45822012424468994
1736211495377842,0.38271892070770264
1736211495393467,0.32055607438087463
1736211495409092,0.27072417736053467
1736211495424717,0.231334388256073
1736211495440342,0.20042860507965088
1736211495455967,0.17623668909072876
1736211495471592,0.15711206197738647
1736211495487217,0.1414813995361328
1736211495502842,0.12808775901794434
1736211495518467,0.11651194095611572
1736211495534092,0.10764020681381226
1736211495549717,0.10368788242340088
1736211495565342,0.10760498046875
1736211495580967,0.12212538719177246
1736211495596592,0.14892399311065674
1736211495612217,0.18815839290618896
1736211495627842,0.23850786685943604
1736211495643467,0.2977346181869507
1736211495659092,0.3634936809539795
1736211495674717,0.43385928869247437
1736211495690342,0.5072639584541321
1736211495705967,0.5820822715759277
1736211495721592,0.6563752889633179
1736211495737217,0.728110671043396
1736211495752842,0.7957077026367188
1736211495768467,0.8584620952606201
1736211495784092,0.916549801826477
1736211495799717,0.970725417137146
1736211495815342,1.0219578742980957
1736211495830967,1.070992112159729
1736211495846592,1.1178724765777588
1736211495862217,1.161816954612732
1736211495877842,1.2016741037368774
1736211495893467,1.2365829944610596
1736211495909092,1.2662948369979858
1736211495924717,1.2911100387573242
1736211495940342,1.3117702007293701
1736211495955967,1.3294470310211182
1736211495971592,1.3456071615219116
1736211495987217,1.361558437347412
1736211496002842,1.3778228759765625
1736211496018467,1.3937156200408936
1736211496034092,1.4074727296829224
1736211496049717,1.4170200824737549
1736211496065342,1.4211305379867554
1736211496080967,1.4203975200653076
1736211496096592,1.4174141883850098
1736211496112217,1.416015386581421
1736211496127842,1.4201074838638306
1736211496143467,1.4329054355621338
1736211496159092,1.4569189548492432
1736211496174717,1.494006872177124
1736211496190342,1.5444388389587402
1736211496205967,1.6048917770385742
1736211496221592,1.6667726039886475
1736211496237217,1.7168272733688354
1736211496252842,1.7407525777816772
1736211496268467,1.7281559705734253
1736211496284092,1.676029086112976
1736211496299717,1.5887398719787598
1736211496315342,1.4738242626190186
1736211496330967,1.3341338634490967
1736211496346592,1.1602637767791748
1736211496362217,0.9301059246063232
1736211496377842,0.6182291507720947
1736211496393467,0.20908284187316895
1736211496409092,-0.2946290671825409
1736211496424717,-0.871063232421875
1736211496440342,-1.483098030090332
1736211496455967,-2.0845446586608887
1736211496471592,-2.6273765563964844
1736211496487217,-3.0678019523620605
1736211496502842,-3.3703184127807617
1736211496518467,-3.5119476318359375
1736211496534092,-3.4872093200683594
1736211496549717,-3.310365676879883
1736211496565342,-3.0126264095306396
1736211496580967,-2.635667562484741
1736211496596592,-2.223949432373047
1736211496612217,-1.8178563117980957
1736211496627842,-1.448876142501831
1736211496643467,-1.1372026205062866
1736211496659092,-0.8916447162628174
1736211496674717,-0.7113251090049744
1736211496690342,-0.5883885622024536
1736211496705967,-0.5109767913818359
1736211496721592,-0.46587473154067993
1736211496737217,-0.4405072331428528
1736211496752842,-0.4242488741874695
1736211496768467,-0.40911415219306946
1736211496784092,-0.3899381160736084
1736211496799717,-0.3641863763332367
1736211496815342,-0.331510066986084
1736211496830967,-0.2931467294692993
1736211496846592,-0.25126639008522034
1736211496862217,-0.20831924676895142
1736211496877842,-0.166442409157753
1736211496893467,-0.12702378630638123
1736211496909092,-0.0905163586139679
1736211496924717,-0.05659538507461548
1736211496940342,-0.02464577555656433
1736211496955967,0.005711749196052551
1736211496971592,0.03442801535129547
1736211496987217,0.0611749142408371
1736211497002842,0.08552107214927673
1736211497018467,0.10700802505016327
1736211497034092,0.1252664178609848
1736211497049717,0.140198215842247
1736211497065342,0.15207360684871674
1736211497080967,0.16144755482673645
1736211497096592,0.16896453499794006
1736211497112217,0.17518556118011475
1736211497127842,0.18050554394721985
1736211497143467,0.1851535439491272
1736211497159092,0.18923640251159668
1736211497174717,0.1927877813577652
1736211497190342,0.195817232131958
1736211497205967,0.19836239516735077
1736211497221592,0.20052111148834229
1736211497237217,0.20244908332824707
1736211497252842,0.20433031022548676
1736211497268467,0.20632591843605042
1736211497284092,0.2085253894329071
1736211497299717,0.21093517541885376
1736211497315342,0.21350789070129395
1736211497330967,0.2162085771560669
1736211497346592,0.21910864114761353
1736211497362217,0.2224595546722412
1736211497377842,0.2267482578754425
1736211497393467,0.23280620574951172
1736211497409092,0.2419833540916443
1736211497424717,0.2562139928340912
1736211497440342,0.277655690908432
1736211497455967,0.30796942114830017
1736211497471592,0.34771430492401123
1736211497487217,0.3955976068973541
1736211497502842,0.4475102424621582
1736211497518467,0.4972383677959442
1736211497534092,0.5393803715705872
1736211497549717,0.5715026259422302
1736211497565342,0.5940090417861938
1736211497580967,0.6093139052391052
1736211497596592,0.6211075782775879
1736211497612217,0.6330757737159729
1736211497627842,0.6472163796424866
1736211497643467,0.6628237366676331
1736211497659092,0.6767136454582214
1736211497674717,0.6844096779823303
1736211497690342,0.6816994547843933
1736211497705967,0.6659367680549622
1736211497721592,0.6366856694221497
1736211497737217,0.5957087874412537
1736211497752842,0.5465192198753357
1736211497768467,0.4936854839324951
1736211497784092,0.4419857859611511
1736211497799717,0.3954837918281555
1736211497815342,0.35670793056488037
1736211497830967,0.3262079954147339
1736211497846592,0.302631676197052
1736211497862217,0.28324365615844727
1736211497877842,0.26468151807785034
1736211497893467,0.24373194575309753
1736211497909092,0.21795910596847534
1736211497924717,0.1860501766204834
1736211497940342,0.14780500531196594
1736211497955967,0.10386550426483154
1736211497971592,0.05539599061012268
1736211497987217,0.0038434863090515137
1736211498002842,-0.04923444986343384
1736211498018467,-0.10231927037239075
1736211498034092,-0.1540580689907074
1736211498049717,-0.20334553718566895
1736211498065342,-0.2493564486503601
1736211498080967,-0.2915459871292114
1736211498096592,-0.3296314477920532
1736211498112217,-0.36355942487716675
1736211498127842,-0.3934597969055176
1736211498143467,-0.41959148645401
1736211498159092,-0.4422920346260071
1736211498174717,-0.4619406461715698
1736211498190342,-0.47893285751342773
1736211498205967,-0.4936572313308716
1736211498221592,-0.5064713358879089
1736211498237217,-0.5176832675933838
1736211498252842,-0.5275375247001648
1736211498268467,-0.5361024737358093
1736211498284092,-0.542892336845398
1736211498299717,-0.5463911294937134
1736211498315342,-0.544041097164154
1736211498330967,-0.5329262018203735
1736211498346592,-0.5107386112213135
1736211498362217,-0.4766072630882263
1736211498377842,-0.43169039487838745
1736211498393467,-0.3794131875038147
1736211498409092,-0.32508590817451477
1736211498424717,-0.27486345171928406
1736211498440342,-0.23443540930747986
1736211498455967,-0.20794472098350525
1736211498471592,-0.19741103053092957
1736211498487217,-0.2026795744895935
1736211498502842,-0.22172045707702637
1736211498518467,-0.2510598599910736
1736211498534092,-0.28626880049705505
1736211498549717,-0.32254067063331604
1736211498565342,-0.35534918308258057
1736211498580967,-0.38110366463661194
1736211498596592,-0.39763516187667847
1736211498612217,-0.4043653607368469
1736211498627842,-0.4021725654602051
1736211498643467,-0.39305421710014343
1736211498659092,-0.37965017557144165
1736211498674717,-0.36471110582351685
1736211498690342,-0.3506070375442505
1736211498705967,-0.3389696776866913
1736211498721592,-0.3305899500846863
1736211498737217,-0.32557010650634766
1736211498752842,-0.32356351613998413
1736211498768467,-0.32397300004959106
1736211498784092,-0.32610633969306946
1736211498799717,-0.329303503036499
1736211498815342,-0.3330068588256836
1736211498830967,-0.33677780628204346
1736211498846592,-0.34030118584632874
1736211498862217,-0.3433780372142792
1736211498877842,-0.34588170051574707
1736211498893467,-0.34767991304397583
1736211498909092,-0.3485504388809204
1736211498924717,-0.34812861680984497
1736211498940342,-0.3459223210811615
1736211498955967,-0.34140080213546753
1736211498971592,-0.334125816822052
1736211498987217,-0.32387644052505493
1736211499002842,-0.31071698665618896
1736211499018467,-0.29498183727264404
1736211499034092,-0.27719688415527344
1736211499049717,-0.25797948241233826
1736211499065342,-0.2379433512687683
1736211499080967,-0.21761734783649445
1736211499096592,-0.197378471493721
1736211499112217,-0.1774005889892578
1736211499127842,-0.157640278339386
1736211499143467,-0.13789142668247223
1736211499159092,-0.11789458990097046
1736211499174717,-0.09744063019752502
1736211499190342,-0.07642627507448196
1736211499205967,-0.05484629422426224
1736211499221592,-0.03270147740840912
1736211499237217,-0.009846866130828857
1736211499252842,0.014110177755355835
1736211499268467,0.03977370262145996
1736211499284092,0.06780488789081573
1736211499299717,0.09873060882091522
1736211499315342,0.13279736042022705
1736211499330967,0.1699349582195282
1736211499346592,0.20984216034412384
1736211499362217,0.25208228826522827
1736211499377842,0.2960223853588104
1736211499393467,0.3406558334827423
1736211499409092,0.3844834566116333
1736211499424717,0.42552316188812256
1736211499440342,0.4616355299949646
1736211499455967,0.49123650789260864
1736211499471592,0.5137953162193298
1736211499487217,0.5296134948730469
1736211499502842,0.5392544269561768
1736211499518467,0.5431661605834961
1736211499534092,0.5416004657745361
1736211499549717,0.5346973538398743
1736211499565342,0.5226225852966309
1736211499580967,0.5056993961334229
1736211499596592,0.48449236154556274
1736211499612217,0.45981669425964355
1736211499627842,0.4326717257499695
1736211499643467,0.4041239023208618
1736211499659092,0.3751769959926605
1736211499674717,0.34665223956108093
1736211499690342,0.3190813958644867
1736211499705967,0.2926320731639862
1736211499721592,0.26711350679397583
1736211499737217,0.24208474159240723
1736211499752842,0.217027485370636
1736211499768467,0.19151847064495087
1736211499784092,0.16535356640815735
1736211499799717,0.13860081136226654
1736211499815342,0.11157938092947006
1736211499830967,0.08478227257728577
1736211499846592,0.05876948684453964
1736211499862217,0.03405977785587311
1736211499877842,0.01104503870010376
1736211499893467,-0.010051369667053223
1736211499909092,-0.02909870445728302
1736211499924717,-0.045711636543273926
1736211499940342,-0.05863228440284729
1736211499955967,-0.06522881984710693
1736211499971592,-0.061466097831726074
1736211499987217,-0.04226352274417877
1736211500002842,-0.002061396837234497
1736211500018467,0.06492316722869873
1736211500034092,0.1662554144859314
1736211500049717,0.3151679039001465
1736211500065342,0.5330401659011841
1736211500080967,0.8450234532356262
1736211500096592,1.2689588069915771
1736211500112217,1.80414617061615
1736211500127842,2.4260783195495605
1736211500143467,3.088470220565796
1736211500159092,3.7302567958831787
1736211500174717,4.284515380859375
1736211500190342,4.6875200271606445
1736211500205967,4.886585235595703
1736211500221592,4.844981670379639
1736211500237217,4.543913841247559
1736211500252842,3.983494758605957
1736211500268467,3.1831893920898438
1736211500284092,2.180590867996216
1736211500299717,1.0286091566085815
1736211500315342,-0.20799386501312256
1736211500330967,-1.4568414688110352
1736211500346592,-2.643610954284668
1736211500362217,-3.698936939239502
1736211500377842,-4.5653228759765625
1736211500393467,-5.202618598937988
1736211500409092,-5.591203212738037
1736211500424717,-5.732677936553955
1736211500440342,-5.648205280303955
1736211500455967,-5.374885559082031
1736211500471592,-4.960596561431885
1736211500487217,-4.457923412322998
1736211500502842,-3.918391466140747
1736211500518467,-3.387982130050659
1736211500534092,-2.903843879699707
1736211500549717,-2.4917140007019043
1736211500565342,-2.164314031600952
1736211500580967,-1.9215588569641113
1736211500596592,-1.7528156042099
1736211500612217,-1.6404407024383545
1736211500627842,-1.563556432723999
1736211500643467,-1.5014581680297852
1736211500659092,-1.436430811882019
1736211500674717,-1.3557277917861938
1736211500690342,-1.252421259880066
1736211500705967,-1.1250869035720825
1736211500721592,-0.976654052734375
1736211500737217,-0.8129536509513855
1736211500752842,-0.6414169669151306
1736211500768467,-0.4700552523136139
1736211500784092,-0.30663001537323
1736211500799717,-0.157989501953125
1736211500815342,-0.029558539390563965
1736211500830967,0.07515257596969604
1736211500846592,0.15500372648239136
1736211500862217,0.21138721704483032
1736211500877842,0.24797070026397705
1736211500893467,0.2701253890991211
1736211500909092,0.2841449975967407
1736211500924717,0.29634523391723633
1736211500940342,0.3122193217277527
1736211500955967,0.335807204246521
1736211500971592,0.3693324327468872
1736211500987217,0.4131239652633667
1736211501002842,0.4658389687538147
1736211501018467,0.5249283313751221
1736211501034092,0.5871918201446533
1736211501049717,0.6493146419525146
1736211501065342,0.7083687782287598
1736211501080967,0.7622015476226807
1736211501096592,0.8095700740814209
1736211501112217,0.8500456809997559
1736211501127842,0.8839125633239746
1736211501143467,0.9122167825698853
1736211501159092,0.9368665218353271
1736211501174717,0.9605140686035156
1736211501190342,0.9860104918479919
1736211501205967,1.0155764818191528
1736211501221592,1.0501716136932373
1736211501237217,1.0893559455871582
1736211501252842,1.1315077543258667
1736211501268467,1.1742196083068848
1736211501284092,1.2148188352584839
1736211501299717,1.2509095668792725
1736211501315342,1.2807884216308594
1736211501330967,1.3036171197891235
1736211501346592,1.3193306922912598
1736211501362217,1.3283863067626953
1736211501377842,1.3315218687057495
1736211501393467,1.3296645879745483
1736211501409092,1.3239678144454956
1736211501424717,1.3157594203948975
1736211501440342,1.306273341178894
1736211501455967,1.2963107824325562
1736211501471592,1.286059856414795
1736211501487217,1.2751500606536865
1736211501502842,1.262930154800415
1736211501518467,1.2488772869110107
1736211501534092,1.2328500747680664
1736211501549717,1.214956283569336
1736211501565342,1.1952012777328491
1736211501580967,1.1732555627822876
1736211501596592,1.1484938859939575
1736211501612217,1.1202503442764282
1736211501627842,1.0880893468856812
1736211501643467,1.0519208908081055
1736211501659092,1.0120434761047363
1736211501674717,0.9693059921264648
1736211501690342,0.9252973794937134
1736211501705967,0.882269024848938
1736211501721592,0.842760443687439
1736211501737217,0.8091220259666443
1736211501752842,0.7829673290252686
1736211501768467,0.7645846605300903
1736211501784092,0.7525618076324463
1736211501799717,0.7439213395118713
1736211501815342,0.7347815632820129
1736211501830967,0.7212507724761963
1736211501846592,0.7004098296165466
1736211501862217,0.6712402105331421
1736211501877842,0.6348094344139099
1736211501893467,0.5934624671936035
1736211501909092,0.5499431490898132
1736211501924717,0.507097065448761
1736211501940342,0.46771541237831116
1736211501955967,0.4342995285987854
1736211501971592,0.40963631868362427
1736211501987217,0.3983253836631775
1736211502002842,0.40720659494400024
1736211502018467,0.44305264949798584
1736211502034092,0.5083633065223694
1736211502049717,0.5974181294441223
1736211502065342,0.6947142481803894
1736211502080967,0.7766746878623962
1736211502096592,0.8159766793251038
1736211502112217,0.7874881029129028
1736211502127842,0.6749414205551147
1736211502143467,0.4761781692504883
1736211502159092,0.20375847816467285
1736211502174717,-0.11887741088867188
1736211502190342,-0.4623764753341675
1736211502205967,-0.7963953614234924
1736211502221592,-1.0949971675872803
1736211502237217,-1.3420664072036743
1736211502252842,-1.5349750518798828
1736211502268467,-1.6839925050735474
1736211502284092,-1.8070424795150757
1736211502299717,-1.9226136207580566
1736211502315342,-2.0437934398651123
1736211502330967,-2.1748464107513428
1736211502346592,-2.310976505279541
1736211502362217,-2.4411704540252686
1736211502377842,-2.5523176193237305
1736211502393467,-2.6315207481384277
1736211502409092,-2.6656413078308105
1736211502424717,-2.640932083129883
1736211502440342,-2.545464038848877
1736211502455967,-2.373797655105591
1736211502471592,-2.1309099197387695
1736211502487217,-1.8324555158615112
1736211502502842,-1.5015746355056763
1736211502518467,-1.164056420326233
1736211502534092,-0.8424443602561951
1736211502549717,-0.551105260848999
1736211502565342,-0.2953900098800659
1736211502580967,-0.07447856664657593
1736211502596592,0.11472731828689575
1736211502612217,0.27391618490219116
1736211502627842,0.40060144662857056
1736211502643467,0.4874270558357239
1736211502659092,0.5241042971611023
1736211502674717,0.5014721155166626
1736211502690342,0.4158284068107605
1736211502705967,0.27095478773117065
1736211502721592,0.07710999250411987
1736211502737217,-0.15108191967010498
1736211502752842,-0.39610084891319275
1736211502768467,-0.6388253569602966
1736211502784092,-0.8607586026191711
1736211502799717,-1.0468134880065918
1736211502815342,-1.1872016191482544
1736211502830967,-1.2775237560272217
1736211502846592,-1.3173553943634033
1736211502862217,-1.308477759361267
1736211502877842,-1.2539546489715576
1736211502893467,-1.1582449674606323
1736211502909092,-1.0275704860687256
1736211502924717,-0.8701760768890381
1736211502940342,-0.6966644525527954
1736211502955967,-0.5199187397956848
1736211502971592,-0.3538059592247009
1736211502987217,-0.21074792742729187
1736211503002842,-0.09908602386713028
1736211503018467,-0.02121281623840332
1736211503034092,0.02695392072200775
1736211503049717,0.05466607213020325
1736211503065342,0.07298008352518082
1736211503080967,0.09097258746623993
1736211503096592,0.11427102982997894
1736211503112217,0.1459340900182724
1736211503127842,0.18728914856910706
1736211503143467,0.23779688775539398
1736211503159092,0.29491040110588074
1736211503174717,0.3546532094478607
1736211503190342,0.4125586152076721
1736211503205967,0.4642983675003052
1736211503221592,0.5059649348258972
1736211503237217,0.5343825817108154
1736211503252842,0.5475990176200867
1736211503268467,0.5454233884811401
1736211503284092,0.5296428203582764
1736211503299717,0.5035547018051147
1736211503315342,0.4710099399089813
1736211503330967,0.4356268644332886
1736211503346592,0.4004518985748291
1736211503362217,0.3677680194377899
1736211503377842,0.33884257078170776
1736211503393467,0.31372833251953125
1736211503409092,0.2912366986274719
1736211503424717,0.2691636085510254
1736211503440342,0.24489615857601166
1736211503455967,0.21635450422763824
1736211503471592,0.1828904151916504
1736211503487217,0.1456594169139862
1736211503502842,0.10722829401493073
1736211503518467,0.07055641710758209
1736211503534092,0.03769220411777496
1736211503549717,0.008720815181732178
1736211503565342,-0.01812422275543213
1736211503580967,-0.04476335644721985
1736211503596592,-0.07122218608856201
1736211503612217,-0.09490281343460083
1736211503627842,-0.11122190952301025
1736211503643467,-0.1145196259021759
1736211503659092,-0.09887096285820007
1736211503674717,-0.0592193603515625
1736211503690342,0.007650792598724365
1736211503705967,0.1032295823097229
1736211503721592,0.2277631163597107
1736211503737217,0.3798147141933441
1736211503752842,0.5553202629089355
1736211503768467,0.7474303245544434
1736211503784092,0.9473041296005249
1736211503799717,1.1449943780899048
1736211503815342,1.3298776149749756
1736211503830967,1.4908115863800049
1736211503846592,1.6166279315948486
1736211503862217,1.6972815990447998
1736211503877842,1.7250981330871582
1736211503893467,1.6954634189605713
1736211503909092,1.6070584058761597
1736211503924717,1.4622238874435425
1736211503940342,1.267901062965393
1736211503955967,1.036365032196045
1736211503971592,0.7838228940963745
1736211503987217,0.5264296531677246
1736211504002842,0.2759132385253906
1736211504018467,0.037234529852867126
1736211504034092,-0.19104129076004028
1736211504049717,-0.41411566734313965
1736211504065342,-0.6369588971138
1736211504080967,-0.8605523705482483
1736211504096592,-1.0798370838165283
1736211504112217,-1.2837610244750977
1736211504127842,-1.4573878049850464
1736211504143467,-1.5856131315231323
1736211504159092,-1.6570944786071777
1736211504174717,-1.6667695045471191
1736211504190342,-1.6161702871322632
1736211504205967,-1.5120261907577515
1736211504221592,-1.364453911781311
1736211504237217,-1.1856954097747803
1736211504252842,-0.9893673658370972
1736211504268467,-0.7896855473518372
1736211504284092,-0.6003445982933044
1736211504299717,-0.4331529140472412
1736211504315342,-0.29679200053215027
1736211504330967,-0.19600969552993774
1736211504346592,-0.1313399374485016
1736211504362217,-0.09936630725860596
1736211504377842,-0.09351575374603271
1736211504393467,-0.10521674156188965
1736211504409092,-0.12517058849334717
1736211504424717,-0.14458295702934265
1736211504440342,-0.15623882412910461
1736211504455967,-0.15531262755393982
1736211504471592,-0.13983672857284546
1736211504487217,-0.11074858903884888
1736211504502842,-0.07159632444381714
1736211504518467,-0.02802664041519165
1736211504534092,0.013169705867767334
1736211504549717,0.04569798707962036
1736211504565342,0.0655742883682251
1736211504580967,0.07214295864105225
1736211504596592,0.06798809766769409
1736211504612217,0.05814450979232788
1736211504627842,0.04891204833984375
1736211504643467,0.04640752077102661
1736211504659092,0.05521458387374878
1736211504674717,0.07748186588287354
1736211504690342,0.11238282918930054
1736211504705967,0.1559528112411499
1736211504721592,0.20180243253707886
1736211504737217,0.24272093176841736
1736211504752842,0.2723834216594696
1736211504768467,0.2865753769874573
1736211504784092,0.28380873799324036
1736211504799717,0.2652088403701782
1736211504815342,0.2338094711303711
1736211504830967,0.1940748691558838
1736211504846592,0.15206849575042725
1736211504862217,0.11517524719238281
1736211504877842,0.09053605794906616
1736211504893467,0.08339953422546387
1736211504909092,0.09691351652145386
1736211504924717,0.13302642107009888
1736211504940342,0.1928313970565796
1736211504955967,0.275489866733551
1736211504971592,0.3769351840019226
1736211504987217,0.49025478959083557
1736211505002842,0.607962965965271
1736211505018467,0.7245172262191772
1736211505034092,0.8373542428016663
1736211505049717,0.9458774328231812
1736211505065342,1.049210786819458
1736211505080967,1.1444599628448486
1736211505096592,1.2266230583190918
1736211505112217,1.2897374629974365
1736211505127842,1.3282601833343506
1736211505143467,1.3381778001785278
1736211505159092,1.3177791833877563
1736211505174717,1.2680891752243042
1736211505190342,1.1929054260253906
1736211505205967,1.0983155965805054
1736211505221592,0.9916761517524719
1736211505237217,0.8804090619087219
1736211505252842,0.7711119651794434
1736211505268467,0.66909259557724
1736211505284092,0.5781287550926208
1736211505299717,0.5003392100334167
1736211505315342,0.4361991882324219
1736211505330967,0.38475480675697327
1736211505346592,0.34402593970298767
1736211505362217,0.31148073077201843
1736211505377842,0.28443479537963867
1736211505393467,0.26031267642974854
1736211505409092,0.23678632080554962
1736211505424717,0.21184921264648438
1736211505440342,0.18392342329025269
1736211505455967,0.1520419865846634
1736211505471592,0.11604723334312439
1736211505487217,0.07672685384750366
1736211505502842,0.035864025354385376
1736211505518467,-0.0037588179111480713
1736211505534092,-0.03841012716293335
1736211505549717,-0.06370586156845093
1736211505565342,-0.07537215948104858
1736211505580967,-0.07039371132850647
1736211505596592,-0.047985583543777466
1736211505612217,-0.009496629238128662
1736211505627842,0.043219149112701416
1736211505643467,0.10940670967102051
1736211505659092,0.18815726041793823
1736211505674717,0.2751350402832031
1736211505690342,0.36162877082824707
1736211505705967,0.4371258020401001
1736211505721592,0.49279212951660156
1736211505737217,0.5237478017807007
1736211505752842,0.5300785303115845
1736211505768467,0.5176021456718445
1736211505784092,0.4989359378814697
1736211505799717,0.4947804808616638
1736211505815342,0.5356684923171997
1736211505830967,0.6636530160903931
1736211505846592,0.9287186861038208
1736211505862217,1.372509479522705
1736211505877842,1.9992554187774658
1736211505893467,2.746553897857666
1736211505909092,3.4808509349823
1736211505924717,4.034646511077881
1736211505940342,4.268276214599609
1736211505955967,4.11763858795166
1736211505971592,3.6040844917297363
1736211505987217,2.8118057250976562
1736211506002842,1.8537147045135498
1736211506018467,0.8429045677185059
1736211506034092,-0.12355232238769531
1736211506049717,-0.969078540802002
1736211506065342,-1.6354296207427979
1736211506080967,-2.080495834350586
1736211506096592,-2.280263900756836
1736211506112217,-2.23372483253479
1736211506127842,-1.9660449028015137
1736211506143467,-1.5271401405334473
1736211506159092,-0.9859671592712402
1736211506174717,-0.42145466804504395
1736211506190342,0.08897638320922852
1736211506205967,0.48089146614074707
1736211506221592,0.7109572887420654
1736211506237217,0.7597029209136963
1736211506252842,0.6293725967407227
1736211506268467,0.33899998664855957
1736211506284092,-0.08108305931091309
1736211506299717,-0.5945677757263184
1736211506315342,-1.1645724773406982
1736211506330967,-1.758394718170166
1736211506346592,-2.3501853942871094
1736211506362217,-2.921804666519165
1736211506377842,-3.4639928340911865
1736211506393467,-3.978440761566162
1736211506409092,-4.477239608764648
1736211506424717,-4.9761199951171875
1736211506440342,-5.484560012817383
1736211506455967,-6.000292778015137
1736211506471592,-6.511307239532471
1736211506487217,-7.002039909362793
1736211506502842,-7.459068298339844
1736211506518467,-7.873307704925537
1736211506534092,-8.238362312316895
1736211506549717,-8.547245979309082
1736211506565342,-8.78997802734375
1736211506580967,-8.952954292297363
1736211506596592,-9.019998550415039
1736211506612217,-8.974864959716797
1736211506627842,-8.804719924926758
1736211506643467,-8.503371238708496
1736211506659092,-8.072813034057617
1736211506674717,-7.522980213165283
1736211506690342,-6.870752334594727
1736211506705967,-6.138880729675293
1736211506721592,-5.354410171508789
1736211506737217,-4.545963287353516
1736211506752842,-3.7404463291168213
1736211506768467,-2.9609181880950928
1736211506784092,-2.226478099822998
1736211506799717,-1.5530903339385986
1736211506815342,-0.9537520408630371
1736211506830967,-0.4372878074645996
1736211506846592,-0.005990743637084961
1736211506862217,0.34682130813598633
1736211506877842,0.637948751449585
1736211506893467,0.8933367729187012
1736211506909092,1.1448533535003662
1736211506924717,1.425562858581543
1736211506940342,1.7646598815917969
1736211506955967,2.1825385093688965
1736211506971592,2.68656325340271
1736211506987217,3.2685017585754395
1736211507002842,3.9041683673858643
1736211507018467,4.555775165557861
1736211507034092,5.1771440505981445
1736211507049717,5.720958232879639
1736211507065342,6.1465678215026855
1736211507080967,6.426344394683838
1736211507096592,6.548982620239258
1736211507112217,6.51968240737915
1736211507127842,6.357926368713379
1736211507143467,6.093639373779297
1736211507159092,5.763079643249512
1736211507174717,5.405373573303223
1736211507190342,5.058994293212891
1736211507205967,4.757306098937988
1736211507221592,4.52384614944458
1736211507237217,4.369295120239258
1736211507252842,4.2916460037231445
1736211507268467,4.279181003570557
1736211507284092,4.314520835876465
1736211507299717,4.37836217880249
1736211507315342,4.4524312019348145
1736211507330967,4.5216169357299805
1736211507346592,4.575311183929443
1736211507362217,4.607931137084961
1736211507377842,4.618634223937988
1736211507393467,4.610477924346924
1736211507409092,4.589513778686523
1736211507424717,4.564148902893066
1736211507440342,4.5448808670043945
1736211507455967,4.544094085693359
1736211507471592,4.575021266937256
1736211507487217,4.649446487426758
1736211507502842,4.774520397186279
1736211507518467,4.9492292404174805
1736211507534092,5.161355495452881
1736211507549717,5.385746955871582
1736211507565342,5.584967613220215
1736211507580967,5.713972568511963
1736211507596592,5.72920036315918
1736211507612217,5.5998358726501465
1736211507627842,5.3167266845703125
1736211507643467,4.894634246826172
1736211507659092,4.3673601150512695
1736211507674717,3.7791852951049805
1736211507690342,3.1762237548828125
1736211507705967,2.5993776321411133
1736211507721592,2.0794098377227783
1736211507737217,1.6343971490859985
1736211507752842,1.2695574760437012
1736211507768467,0.9790186882019043
1736211507784092,0.7488516569137573
1736211507799717,0.5606685876846313
1736211507815342,0.39514607191085815
1736211507830967,0.23496854305267334
1736211507846592,0.06689035892486572
1736211507862217,-0.11721372604370117
1736211507877842,-0.32027971744537354
1736211507893467,-0.5407520532608032
1736211507909092,-0.773712158203125
1736211507924717,-1.0121632814407349
1736211507940342,-1.2483042478561401
1736211507955967,-1.4746806621551514
1736211507971592,-1.6851272583007812
1736211507987217,-1.8754373788833618
1736211508002842,-2.0436971187591553
1736211508018467,-2.1902265548706055
1736211508034092,-2.3171417713165283
1736211508049717,-2.4276721477508545
1736211508065342,-2.525439977645874
1736211508080967,-2.613865852355957
1736211508096592,-2.6957578659057617
1736211508112217,-2.773059844970703
1736211508127842,-2.846728563308716
1736211508143467,-2.9167394638061523
1736211508159092,-2.982229471206665
1736211508174717,-3.0418002605438232
1736211508190342,-3.093939781188965
1736211508205967,-3.1374425888061523
1736211508221592,-3.1717045307159424
1736211508237217,-3.1968295574188232
1736211508252842,-3.213540554046631
1736211508268467,-3.2229204177856445
1736211508284092,-3.2260735034942627
1736211508299717,-3.223853826522827
1736211508315342,-3.2167489528656006
1736211508330967,-3.2048959732055664
1736211508346592,-3.188176155090332
1736211508362217,-3.166365623474121
1736211508377842,-3.1393041610717773
1736211508393467,-3.107043743133545
1736211508409092,-3.069951295852661
1736211508424717,-3.0287697315216064
1736211508440342,-2.9845902919769287
1736211508455967,-2.938645839691162
1736211508471592,-2.8919451236724854
1736211508487217,-2.8449223041534424
1736211508502842,-2.797279119491577
1736211508518467,-2.74807071685791
1736211508534092,-2.6959633827209473
1736211508549717,-2.639545202255249
1736211508565342,-2.5776095390319824
1736211508580967,-2.509368658065796
1736211508596592,-2.4345688819885254
1736211508612217,-2.3534903526306152
1736211508627842,-2.2668533325195312
1736211508643467,-2.175679922103882
1736211508659092,-2.0811119079589844
1736211508674717,-1.984137773513794
1736211508690342,-1.885287880897522
1736211508705967,-1.7845115661621094
1736211508721592,-1.6813278198242188
1736211508737217,-1.5750350952148438
1736211508752842,-1.4647269248962402
1736211508768467,-1.349381923675537
1736211508784092,-1.228607416152954
1736211508799717,-1.103752613067627
1736211508815342,-0.9782519936561584
1736211508830967,-0.8567036390304565
1736211508846592,-0.7433751225471497
1736211508862217,-0.6410689353942871
1736211508877842,-0.5506963729858398
1736211508893467,-0.47138291597366333
1736211508909092,-0.4008498191833496
1736211508924717,-0.3359242379665375
1736211508940342,-0.2730937600135803
1736211508955967,-0.20901471376419067
1736211508971592,-0.14089041948318481
1736211508987217,-0.066726915538311
1736211509002842,0.014470741152763367
1736211509018467,0.10255302488803864
1736211509034092,0.19618909060955048
1736211509049717,0.29299893975257874
1736211509065342,0.38984954357147217
1736211509080967,0.48325711488723755
1736211509096592,0.5698590278625488
1736211509112217,0.6469154357910156
1736211509127842,0.7127305269241333
1736211509143467,0.7668628692626953
1736211509159092,0.8100855350494385
1736211509174717,0.8441870212554932
1736211509190342,0.8717008829116821
1736211509205967,0.8954975008964539
1736211509221592,0.9182310104370117
1736211509237217,0.9418599605560303
1736211509252842,0.9674198627471924
1736211509268467,0.9950177073478699
1736211509284092,1.0239837169647217
1736211509299717,1.0531589984893799
1736211509315342,1.0812674760818481
1736211509330967,1.1072723865509033
1736211509346592,1.1306302547454834
1736211509362217,1.1513757705688477
1736211509377842,1.1700266599655151
1736211509393467,1.1874003410339355
1736211509409092,1.204442024230957
1736211509424717,1.2220802307128906
1736211509440342,1.241060733795166
1736211509455967,1.2617456912994385
1736211509471592,1.2840862274169922
1736211509487217,1.3079594373703003
1736211509502842,1.3334695100784302
1736211509518467,1.360783576965332
1736211509534092,1.3897804021835327
1736211509549717,1.4198024272918701
1736211509565342,1.4494068622589111
1736211509580967,1.4762158393859863
1736211509596592,1.497129201889038
1736211509612217,1.508786678314209
1736211509627842,1.5080275535583496
1736211509643467,1.4924179315567017
1736211509659092,1.4608604907989502
1736211509674717,1.413973093032837
1736211509690342,1.3539941310882568
1736211509705967,1.2842882871627808
1736211509721592,1.2087773084640503
1736211509737217,1.1315202713012695
1736211509752842,1.0562646389007568
1736211509768467,0.9858429431915283
1736211509784092,0.921700119972229
1736211509799717,0.8636398911476135
1736211509815342,0.8097054958343506
1736211509830967,0.7566759586334229
1736211509846592,0.7014305591583252
1736211509862217,0.642224133014679
1736211509877842,0.5789557099342346
1736211509893467,0.5126810669898987
1736211509909092,0.4449440538883209
1736211509924717,0.3770589828491211
1736211509940342,0.3093758225440979
1736211509955967,0.24082113802433014
1736211509971592,0.16897866129875183
1736211509987217,0.09056001901626587
1736211510002842,0.0019924938678741455
1736211510018467,-0.09978333115577698
1736211510034092,-0.21616849303245544
1736211510049717,-0.34587040543556213
1736211510065342,-0.48466798663139343
1736211510080967,-0.6260703802108765
1736211510096592,-0.7624689936637878
1736211510112217,-0.8864200711250305
1736211510127842,-0.9917951822280884
1736211510143467,-1.0745598077774048
1736211510159092,-1.1330393552780151
1736211510174717,-1.167681336402893
1736211510190342,-1.1804625988006592
1736211510205967,-1.1741900444030762
1736211510221592,-1.1519415378570557
1736211510237217,-1.116771936416626
1736211510252842,-1.0716137886047363
1736211510268467,-1.019204020500183
1736211510284092,-0.9619615077972412
1736211510299717,-0.9018394947052002
1736211510315342,-0.8402547240257263
1736211510330967,-0.778196394443512
1736211510346592,-0.7164411544799805
1736211510362217,-0.6557106375694275
1736211510377842,-0.5966623425483704
1736211510393467,-0.5397076606750488
1736211510409092,-0.48489147424697876
1736211510424717,-0.4321237802505493
1736211510440342,-0.3816584646701813
1736211510455967,-0.3343892991542816
1736211510471592,-0.29175642132759094
1736211510487217,-0.25543466210365295
1736211510502842,-0.22701634466648102
1736211510518467,-0.20773817598819733
1736211510534092,-0.19823426008224487
1736211510549717,-0.19833272695541382
1736211510565342,-0.20694921910762787
1736211510580967,-0.22212940454483032
1736211510596592,-0.2412349432706833
1736211510612217,-0.2611945867538452
1736211510627842,-0.2787473201751709
1736211510643467,-0.29068535566329956
1736211510659092,-0.2941342890262604
1736211510674717,-0.28685444593429565
1736211510690342,-0.26750433444976807
1736211510705967,-0.2357906699180603
1736211510721592,-0.19246941804885864
1736211510737217,-0.13924917578697205
1736211510752842,-0.07865047454833984
1736211510768467,-0.013809800148010254
1736211510784092,0.051781535148620605
1736211510799717,0.1145908534526825
1736211510815342,0.17140942811965942
1736211510830967,0.21972206234931946
1736211510846592,0.25795701146125793
1736211510862217,0.28556203842163086
1736211510877842,0.30299440026283264
1736211510893467,0.3116624355316162
1736211510909092,0.3137351870536804
1736211510924717,0.31181657314300537
1736211510940342,0.30858004093170166
1736211510955967,0.30643343925476074
1736211510971592,0.30725401639938354
1736211510987217,0.3122296929359436
1736211511002842,0.32182878255844116
1736211511018467,0.33588406443595886
1736211511034092,0.3537404239177704
1736211511049717,0.3744102120399475
1736211511065342,0.3967086970806122
1736211511080967,0.41936933994293213
1736211511096592,0.4411425292491913
1736211511112217,0.4608813226222992
1736211511127842,0.47762709856033325
1736211511143467,0.4906977415084839
1736211511159092,0.49975210428237915
1736211511174717,0.5047990679740906
1736211511190342,0.5061430931091309
1736211511205967,0.5042842030525208
1736211511221592,0.4998056888580322
1736211511237217,0.4932851195335388
1736211511252842,0.4852426052093506
1736211511268467,0.4761129319667816
1736211511284092,0.4662228226661682
1736211511299717,0.4557679295539856
1736211511315342,0.4447992444038391
1736211511330967,0.43323183059692383
1736211511346592,0.42087769508361816
1736211511362217,0.40749800205230713
1736211511377842,0.3928692936897278
1736211511393467,0.3768497109413147
1736211511409092,0.35942602157592773
1736211511424717,0.34073173999786377
1736211511440342,0.3210420310497284
1736211511455967,0.3007505238056183
1736211511471592,0.2803172767162323
1736211511487217,0.26018205285072327
1736211511502842,0.24067561328411102
1736211511518467,0.22197356820106506
1736211511534092,0.20410309731960297
1736211511549717,0.18698182702064514
1736211511565342,0.1704656034708023
1736211511580967,0.15439249575138092
1736211511596592,0.13861630856990814
1736211511612217,0.12302438914775848
1736211511627842,0.10753743350505829
1736211511643467,0.09209635108709335
1736211511659092,0.07664626091718674
1736211511674717,0.061127789318561554
1736211511690342,0.045482560992240906
1736211511705967,0.029672235250473022
1736211511721592,0.013699591159820557
1736211511737217,-0.002381354570388794
1736211511752842,-0.018470048904418945
1736211511768467,-0.034432217478752136
1736211511784092,-0.05011284351348877
1736211511799717,-0.06535182893276215
1736211511815342,-0.08000731468200684
1736211511830967,-0.09397973120212555
1736211511846592,-0.10722310841083527
1736211511862217,-0.11974000930786133
1736211511877842,-0.13157111406326294
1736211511893467,-0.1427907943725586
1736211511909092,-0.15350361168384552
1736211511924717,-0.1638289839029312
1736211511940342,-0.1738739013671875
1736211511955967,-0.18370750546455383
1736211511971592,-0.19334879517555237
1736211511987217,-0.20276851952075958
1736211512002842,-0.21189862489700317
1736211512018467,-0.22064201533794403
1736211512034092,-0.22888410091400146
1736211512049717,-0.23651118576526642
1736211512065342,-0.24343381822109222
1736211512080967,-0.24960452318191528
1736211512096592,-0.25501981377601624
1736211512112217,-0.2597087621688843
1736211512127842,-0.26372116804122925
1736211512143467,-0.2671234607696533
1736211512159092,-0.2699957489967346
1736211512174717,-0.2724239230155945
1736211512190342,-0.27449238300323486
1736211512205967,-0.27628228068351746
1736211512221592,-0.27787166833877563
1736211512237217,-0.279334157705307
1736211512252842,-0.2807309031486511
1736211512268467,-0.2820923924446106
1736211512284092,-0.28339940309524536
1736211512299717,-0.28457778692245483
1736211512315342,-0.2855116128921509
1736211512330967,-0.28606680035591125
1736211512346592,-0.2861163914203644
1736211512362217,-0.2855643332004547
1736211512377842,-0.2843659818172455
1736211512393467,-0.28254225850105286
1736211512409092,-0.28017908334732056
1736211512424717,-0.277401864528656
1736211512440342,-0.274330198764801
1736211512455967,-0.27104002237319946
1736211512471592,-0.26754888892173767
1736211512487217,-0.26381799578666687
1736211512502842,-0.259762167930603
1736211512518467,-0.25526317954063416
1736211512534092,-0.25018590688705444
1736211512549717,-0.24439820647239685
1736211512565342,-0.23779375851154327
1736211512580967,-0.2303142547607422
1736211512596592,-0.22196415066719055
1736211512612217,-0.2128109484910965
1736211512627842,-0.20297227799892426
1736211512643467,-0.19259631633758545
1736211512659092,-0.18183785676956177
1736211512674717,-0.1708325892686844
1736211512690342,-0.15967869758605957
1736211512705967,-0.14843429625034332
1736211512721592,-0.1371300220489502
1736211512737217,-0.1257886290550232
1736211512752842,-0.11444120854139328
1736211512768467,-0.10313335806131363
1736211512784092,-0.09192213416099548
1736211512799717,-0.08086726069450378
1736211512815342,-0.0700187236070633
1736211512830967,-0.059405367821455
1736211512846592,-0.04903034865856171
1736211512862217,-0.03887356072664261
1736211512877842,-0.028898296877741814
1736211512893467,-0.019062936305999756
1736211512909092,-0.00933774746954441
1736211512924717,0.0002788924612104893
1736211512940342,0.009753528982400894
1736211512955967,0.019024204462766647
1736211512971592,0.028015170246362686
1736211512987217,0.036648284643888474
1736211513002842,0.044845983386039734
1736211513018467,0.052532948553562164
1736211513034092,0.059643663465976715
1736211513049717,0.06613153219223022
1736211513065342,0.0719723030924797
1736211513080967,0.07716488093137741
1736211513096592,0.08173635601997375
1736211513112217,0.08574806153774261
1736211513127842,0.08929464966058731
1736211513143467,0.0924970954656601
1736211513159092,0.09549984335899353
1736211513174717,0.09847564250230789
1736211513190342,0.10162948071956635
1736211513205967,0.1051911786198616
1736211513221592,0.10939022153615952
1736211513237217,0.11441727727651596
1736211513252842,0.12038780748844147
1736211513268467,0.12731662392616272
1736211513284092,0.1351020634174347
1736211513299717,0.14352020621299744
1736211513315342,0.15223366022109985
1736211513330967,0.16081489622592926
1736211513346592,0.1687769740819931
1736211513362217,0.17560507357120514
1736211513377842,0.18078798055648804
1736211513393467,0.18385295569896698
1736211513409092,0.1844058334827423
1736211513424717,0.18217359483242035
1736211513440342,0.1770438402891159
1736211513455967,0.16909514367580414
1736211513471592,0.15861079096794128
1736211513487217,0.1460680067539215
1736211513502842,0.1321009397506714
1736211513518467,0.11744789034128189
1736211513534092,0.1028919368982315
1736211513549717,0.08919230848550797
1736211513565342,0.077004574239254
1736211513580967,0.06680481880903244
1736211513596592,0.05884018540382385
1736211513612217,0.053115248680114746
1736211513627842,0.049412041902542114
1736211513643467,0.047345466911792755
1736211513659092,0.04645426571369171
1736211513674717,0.04630095511674881
1736211513690342,0.04652872681617737
1736211513705967,0.04685617983341217
1736211513721592,0.04705176502466202
1736211513737217,0.04693899303674698
1736211513752842,0.04644162952899933
1736211513768467,0.04562637209892273
1736211513784092,0.04468436539173126
1736211513799717,0.04385582357645035
1736211513815342,0.04337448626756668
1736211513830967,0.04346059262752533
1736211513846592,0.044295214116573334
1736211513862217,0.04595453292131424
1736211513877842,0.04837138205766678
1736211513893467,0.05136539041996002
1736211513909092,0.05473284423351288
1736211513924717,0.05834637209773064
1736211513940342,0.062192153185606
1736211513955967,0.06634658575057983
1736211513971592,0.07095575332641602
1736211513987217,0.07623227685689926
1736211514002842,0.08244278281927109
1736211514018467,0.08987747877836227
1736211514034092,0.0988084152340889
1736211514049717,0.10943040251731873
1736211514065342,0.1217721626162529
1736211514080967,0.1356097310781479
1736211514096592,0.15045355260372162
1736211514112217,0.16563135385513306
1736211514127842,0.18041718006134033
1736211514143467,0.19415311515331268
1736211514159092,0.2063380777835846
1736211514174717,0.2166699767112732
1736211514190342,0.22502532601356506
1736211514205967,0.2313511073589325
1736211514221592,0.23547863960266113
1736211514237217,0.23696891963481903
1736211514252842,0.2351302057504654
1736211514268467,0.22922657430171967
1736211514284092,0.2187282294034958
1736211514299717,0.20338208973407745
1736211514315342,0.18304625153541565
1736211514330967,0.15751372277736664
1736211514346592,0.12655538320541382
1736211514362217,0.0901648998260498
1736211514377842,0.04884595423936844
1736211514393467,0.003790535032749176
1736211514409092,-0.04314971715211868
1736211514424717,-0.08970893174409866
1736211514440342,-0.13357865810394287
1736211514455967,-0.17275336384773254
1736211514471592,-0.20575284957885742
1736211514487217,-0.23175305128097534
1736211514502842,-0.25063472986221313
1736211514518467,-0.2627325654029846
1736211514534092,-0.2682081162929535
1736211514549717,-0.26671427488327026
1736211514565342,-0.2579275369644165
1736211514580967,-0.24234503507614136
1736211514596592,-0.22154462337493896
1736211514612217,-0.19791758060455322
1736211514627842,-0.17417337000370026
1736211514643467,-0.15280531346797943
1736211514659092,-0.1356789618730545
1736211514674717,-0.12383207678794861
1736211514690342,-0.11747372895479202
1736211514705967,-0.11612950265407562
1736211514721592,-0.11885888129472733
1736211514737217,-0.12447772175073624
1736211514752842,-0.13175657391548157
1736211514768467,-0.13957056403160095
1736211514784092,-0.14697690308094025
1736211514799717,-0.15323489904403687
1736211514815342,-0.1578076332807541
1736211514830967,-0.1603672206401825
1736211514846592,-0.16079574823379517
1736211514862217,-0.159162700176239
1736211514877842,-0.1556786745786667
1736211514893467,-0.150654599070549
1736211514909092,-0.14449554681777954
1736211514924717,-0.1377105414867401
1736211514940342,-0.13087573647499084
1736211514955967,-0.12451912462711334
1736211514971592,-0.11896394193172455
1736211514987217,-0.11421427130699158
1736211515002842,-0.10996928811073303
1736211515018467,-0.10576454550027847
1736211515034092,-0.10111942887306213
1736211515049717,-0.09559150785207748
1736211515065342,-0.08849427849054337
1736211515080967,-0.07638940960168839
1736211515096592,-0.04586300626397133
1736211515112217,0.03362217918038368
1736211515127842,0.20501740276813507
1736211515143467,0.5053444504737854
1736211515159092,0.9463536739349365
1736211515174717,1.5048056840896606
1736211515190342,2.1245269775390625
1736211515205967,2.7291100025177
1736211515221592,3.2422568798065186
1736211515237217,3.6111984252929688
1736211515252842,3.8256967067718506
1736211515268467,3.921847343444824
1736211515284092,3.9662294387817383
1736211515299717,4.030208110809326
1736211515315342,4.168900489807129
1736211515330967,4.410407066345215
1736211515346592,4.752594947814941
1736211515362217,5.164039611816406
1736211515377842,5.58856201171875
1736211515393467,5.954254150390625
1736211515409092,6.186123847961426
1736211515424717,6.219046592712402
1736211515440342,6.007919788360596
1736211515455967,5.533139705657959
1736211515471592,4.800399303436279
1736211515487217,3.8366341590881348
1736211515502842,2.6853582859039307
1736211515518467,1.403106927871704
1736211515534092,0.05880403518676758
1736211515549717,-1.2658510208129883
1736211515565342,-2.482480049133301
1736211515580967,-3.51054048538208
1736211515596592,-4.292795658111572
1736211515612217,-4.80456018447876
1736211515627842,-5.055034637451172
1736211515643467,-5.082727909088135
1736211515659092,-4.947589874267578
1736211515674717,-4.7209792137146
1736211515690342,-4.474083423614502
1736211515705967,-4.266923904418945
1736211515721592,-4.140557765960693
1736211515737217,-4.114624977111816
1736211515752842,-4.191161155700684
1736211515768467,-4.360968112945557
1736211515784092,-4.606869220733643
1736211515799717,-4.904520034790039
1736211515815342,-5.2254252433776855
1736211515830967,-5.542922496795654
1736211515846592,-5.839138031005859
1736211515862217,-6.111138343811035
1736211515877842,-6.374054908752441
1736211515893467,-6.6601104736328125
1736211515909092,-7.01412296295166
1736211515924717,-7.484800338745117
1736211515940342,-8.111398696899414
1736211515955967,-8.908612251281738
1736211515971592,-9.853958129882812
1736211515987217,-10.882425308227539
1736211516002842,-11.892608642578125
1736211516018467,-12.76360034942627
1736211516034092,-13.376839637756348
1736211516049717,-13.63651180267334
1736211516065342,-13.484139442443848
1736211516080967,-12.905425071716309
1736211516096592,-11.929359436035156
1736211516112217,-10.621030807495117
1736211516127842,-9.070289611816406
1736211516143467,-7.37861967086792
1736211516159092,-5.64607048034668
1736211516174717,-3.9589834213256836
1736211516190342,-2.3799214363098145
1736211516205967,-0.9432878494262695
1736211516221592,0.3418464660644531
1736211516237217,1.4850084781646729
1736211516252842,2.5073401927948
1736211516268467,3.435619354248047
1736211516284092,4.299155235290527
1736211516299717,5.131362438201904
1736211516315342,5.97171688079834
1736211516330967,6.859837532043457
1736211516346592,7.821789741516113
1736211516362217,8.858685493469238
1736211516377842,9.944799423217773
1736211516393467,11.032890319824219
1736211516409092,12.061271667480469
1736211516424717,12.960749626159668
1736211516440342,13.662322998046875
1736211516455967,14.105957984924316
1736211516471592,14.249443054199219
1736211516487217,14.075498580932617
1736211516502842,13.59460163116455
1736211516518467,12.841728210449219
1736211516534092,11.86810302734375
1736211516549717,10.731172561645508
1736211516565342,9.485496520996094
1736211516580967,8.176445007324219
1736211516596592,6.838901519775391
1736211516612217,5.501894474029541
1736211516627842,4.19592809677124
1736211516643467,2.957207441329956
1736211516659092,1.8260949850082397
1736211516674717,0.8419947624206543
1736211516690342,0.03757882118225098
1736211516705967,-0.5662174224853516
1736211516721592,-0.9635016918182373
1736211516737217,-1.1642787456512451
1736211516752842,-1.1927001476287842
1736211516768467,-1.0832531452178955
1736211516784092,-0.8759214878082275
1736211516799717,-0.6113593578338623
1736211516815342,-0.32680177688598633
1736211516830967,-0.053084373474121094
1736211516846592,0.18710851669311523
1736211516862217,0.37983202934265137
1736211516877842,0.51944899559021
1736211516893467,0.6073729991912842
1736211516909092,0.6502386331558228
1736211516924717,0.6578385829925537
1736211516940342,0.6411584615707397
1736211516955967,0.6107469797134399
1736211516971592,0.5755388736724854
1736211516987217,0.5421642065048218
1736211517002842,0.5147034525871277
1736211517018467,0.4948003888130188
1736211517034092,0.48202842473983765
1736211517049717,0.47439950704574585
1736211517065342,0.46890437602996826
1736211517080967,0.4620048999786377
1736211517096592,0.4500434994697571
1736211517112217,0.42958909273147583
1736211517127842,0.39779916405677795
1736211517143467,0.3528384566307068
1736211517159092,0.2942456007003784
1736211517174717,0.2230566143989563
1736211517190342,0.14158138632774353
1736211517205967,0.052899062633514404
1736211517221592,-0.03975045680999756
1736211517237217,-0.13349485397338867
1736211517252842,-0.226161390542984
1736211517268467,-0.31637606024742126
1736211517284092,-0.40343084931373596
1736211517299717,-0.48691076040267944
1736211517315342,-0.5661149024963379
1736211517330967,-0.6394912004470825
1736211517346592,-0.7044466733932495
1736211517362217,-0.7577166557312012
1736211517377842,-0.7961905002593994
1736211517393467,-0.817975640296936
1736211517409092,-0.8233025074005127
1736211517424717,-0.8147568702697754
1736211517440342,-0.7967129945755005
1736211517455967,-0.7743678092956543
1736211517471592,-0.7528266906738281
1736211517487217,-0.736420214176178
1736211517502842,-0.728232204914093
1736211517518467,-0.7297919988632202
1736211517534092,-0.7409294843673706
1736211517549717,-0.759804904460907
1736211517565342,-0.7831361293792725
1736211517580967,-0.8066920042037964
1736211517596592,-0.8260814547538757
1736211517612217,-0.8376966118812561
1736211517627842,-0.839540958404541
1736211517643467,-0.8317010998725891
1736211517659092,-0.8162705302238464
1736211517674717,-0.7935298681259155
1736211517690342,-0.7488682270050049
1736211517705967,-0.6375511884689331
1736211517721592,-0.38767772912979126
1736211517737217,0.07272529602050781
1736211517752842,0.781286358833313
1736211517768467,1.718580722808838
1736211517784092,2.8052310943603516
1736211517799717,3.9169363975524902
1736211517815342,4.910683631896973
1736211517830967,5.654116630554199
1736211517846592,6.050135135650635
1736211517862217,6.050993919372559
1736211517877842,5.659615516662598
1736211517893467,4.919095993041992
1736211517909092,3.8951709270477295
1736211517924717,2.659637928009033
1736211517940342,1.2816393375396729
1736211517955967,-0.17307400703430176
1736211517971592,-1.640226125717163
1736211517987217,-3.0563905239105225
1736211518002842,-4.360368728637695
1736211518018467,-5.496416091918945
1736211518034092,-6.418879508972168
1736211518049717,-7.097321510314941
1736211518065342,-7.520801544189453
1736211518080967,-7.699670791625977
1736211518096592,-7.663632392883301
1736211518112217,-7.456075668334961
1736211518127842,-7.126258850097656
1736211518143467,-6.72190523147583
1736211518159092,-6.2841057777404785
1736211518174717,-5.844549655914307
1736211518190342,-5.424215316772461
1736211518205967,-5.0335259437561035
1736211518221592,-4.674453258514404
1736211518237217,-4.34359073638916
1736211518252842,-4.0346832275390625
1736211518268467,-3.7405433654785156
1736211518284092,-3.4545845985412598
1736211518299717,-3.171752452850342
1736211518315342,-2.8888862133026123
1736211518330967,-2.6045970916748047
1736211518346592,-2.318629264831543
1736211518362217,-2.0307388305664062
1736211518377842,-1.739853858947754
1736211518393467,-1.444870948791504
1736211518409092,-1.1467229127883911
1736211518424717,-0.8496213555335999
1736211518440342,-0.5608396530151367
1736211518455967,-0.2896709144115448
1736211518471592,-0.04529651999473572
1736211518487217,0.16629430651664734
1736211518502842,0.3444198966026306
1736211518518467,0.49346819519996643
1736211518534092,0.6214021444320679
1736211518549717,0.7389096021652222
1736211518565342,0.8594925403594971
1736211518580967,0.9994852542877197
1736211518596592,1.1784298419952393
1736211518612217,1.4224740266799927
1736211518627842,1.7695114612579346
1736211518643467,2.2670795917510986
1736211518659092,2.956756591796875
1736211518674717,3.851114511489868
1736211518690342,4.916047096252441
1736211518705967,6.068242073059082
1736211518721592,7.1890668869018555
1736211518737217,8.146583557128906
1736211518752842,8.816137313842773
1736211518768467,9.098661422729492
1736211518784092,8.938604354858398
1736211518799717,8.336029052734375
1736211518815342,7.344460964202881
1736211518830967,6.0540771484375
1736211518846592,4.570568084716797
1736211518862217,2.9978513717651367
1736211518877842,1.4240295886993408
1736211518893467,-0.08525753021240234
1736211518909092,-1.4812065362930298
1736211518924717,-2.723562479019165
1736211518940342,-3.77927303314209
1736211518955967,-4.624045372009277
1736211518971592,-5.239996910095215
1736211518987217,-5.606213569641113
1736211519002842,-5.68604850769043
1736211519018467,-5.4275031089782715
1736211519034092,-4.788383960723877
1736211519049717,-3.772636651992798
1736211519065342,-2.4530410766601562
1736211519080967,-0.9687361717224121
1736211519096592,0.4985886216163635
1736211519112217,1.7587343454360962
1736211519127842,2.644841194152832
1736211519143467,3.035299777984619
1736211519159092,2.864614963531494
1736211519174717,2.1259987354278564
1736211519190342,0.8700210452079773
1736211519205967,-0.7980356216430664
1736211519221592,-2.7248458862304688
1736211519237217,-4.7245683670043945
1736211519252842,-6.602895259857178
1736211519268467,-8.183680534362793
1736211519284092,-9.331623077392578
1736211519299717,-9.966800689697266
1736211519315342,-10.06948184967041
1736211519330967,-9.675834655761719
1736211519346592,-8.866631507873535
1736211519362217,-7.751729488372803
1736211519377842,-6.453264236450195
1736211519393467,-5.090043067932129
1736211519409092,-3.7649855613708496
1736211519424717,-2.55666446685791
1736211519440342,-1.5152390003204346
1736211519455967,-0.6624763011932373
1736211519471592,0.004820585250854492
1736211519487217,0.5089826583862305
1736211519502842,0.8844442367553711
1736211519518467,1.170659065246582
1736211519534092,1.4058960676193237
1736211519549717,1.6225895881652832
1736211519565342,1.8445520401000977
1736211519580967,2.085947036743164
1736211519596592,2.351679801940918
1736211519612217,2.6388344764709473
1736211519627842,2.938788414001465
1736211519643467,3.239629030227661
1736211519659092,3.528517723083496
1736211519674717,3.7936930656433105
1736211519690342,4.0258989334106445
1736211519705967,4.219175815582275
1736211519721592,4.371060848236084
1736211519737217,4.482298851013184
1736211519752842,4.556219100952148
1736211519768467,4.597907066345215
1736211519784092,4.6132636070251465
1736211519799717,4.608078479766846
1736211519815342,4.587319374084473
1736211519830967,4.554762840270996
1736211519846592,4.512930870056152
1736211519862217,4.463193893432617
1736211519877842,4.405922889709473
1736211519893467,4.340707302093506
1736211519909092,4.2666826248168945
1736211519924717,4.182916641235352
1736211519940342,4.088779926300049
1736211519955967,3.9842071533203125
1736211519971592,3.869779109954834
1736211519987217,3.746616840362549
1736211520002842,3.6161553859710693
1736211520018467,3.479869842529297
1736211520034092,3.3390119075775146
1736211520049717,3.1944408416748047
1736211520065342,3.0466456413269043
1736211520080967,2.895918846130371
1736211520096592,2.7425155639648438
1736211520112217,2.5867040157318115
1736211520127842,2.428722858428955
1736211520143467,2.2687063217163086
1736211520159092,2.106644868850708
1736211520174717,1.9424391984939575
1736211520190342,1.7760274410247803
1736211520205967,1.6075105667114258
1736211520221592,1.4372143745422363
1736211520237217,1.2656934261322021
1736211520252842,1.0937068462371826
1736211520268467,0.9221722483634949
1736211520284092,0.7520949244499207
1736211520299717,0.5844805836677551
1736211520315342,0.4202502965927124
1736211520330967,0.26017576456069946
1736211520346592,0.10484766960144043
1736211520362217,-0.045320868492126465
1736211520377842,-0.19006967544555664
1736211520393467,-0.3292638063430786
1736211520409092,-0.46287667751312256
1736211520424717,-0.5909773111343384
1736211520440342,-0.7137117385864258
1736211520455967,-0.8312758207321167
1736211520471592,-0.9438837766647339
1736211520487217,-1.0517340898513794
1736211520502842,-1.154980182647705
1736211520518467,-1.2537161111831665
1736211520534092,-1.347978949546814
1736211520549717,-1.4377553462982178
1736211520565342,-1.5229864120483398
1736211520580967,-1.6035723686218262
1736211520596592,-1.6793830394744873
1736211520612217,-1.75027596950531
1736211520627842,-1.8161160945892334
1736211520643467,-1.8767914772033691
1736211520659092,-1.932225227355957
1736211520674717,-1.982386589050293
1736211520690342,-2.0273044109344482
1736211520705967,-2.0670735836029053
1736211520721592,-2.1018476486206055
1736211520737217,-2.1318116188049316
1736211520752842,-2.157106876373291
1736211520768467,-2.1777026653289795
1736211520784092,-2.1933305263519287
1736211520799717,-2.203608989715576
1736211520815342,-2.208268404006958
1736211520830967,-2.2072768211364746
1736211520846592,-2.200789451599121
1736211520862217,-2.1890499591827393
1736211520877842,-2.172396421432495
1736211520893467,-2.151336669921875
1736211520909092,-2.126572370529175
1736211520924717,-2.098932981491089
1736211520940342,-2.0692522525787354
1736211520955967,-2.038233518600464
1736211520971592,-2.0063552856445312
1736211520987217,-1.973835825920105
1736211521002842,-1.940646767616272
1736211521018467,-1.9065576791763306
1736211521034092,-1.8712031841278076
1736211521049717,-1.8341631889343262
1736211521065342,-1.7950488328933716
1736211521080967,-1.7535738945007324
1736211521096592,-1.7095977067947388
1736211521112217,-1.6631319522857666
1736211521127842,-1.6143138408660889
1736211521143467,-1.5633604526519775
1736211521159092,-1.510516881942749
1736211521174717,-1.456009864807129
1736211521190342,-1.4000146389007568
1736211521205967,-1.3426493406295776
1736211521221592,-1.2839981317520142
1736211521237217,-1.2241483926773071
1736211521252842,-1.1632194519042969
1736211521268467,-1.101369857788086
1736211521284092,-1.0387823581695557
1736211521299717,-0.9756393432617188
1736211521315342,-0.9121058583259583
1736211521330967,-0.8483238816261292
1736211521346592,-0.7844101190567017
1736211521362217,-0.7204557061195374
1736211521377842,-0.6565303802490234
1736211521393467,-0.5926903486251831
1736211521409092,-0.5289872884750366
1736211521424717,-0.46547842025756836
1736211521440342,-0.40223801136016846
1736211521455967,-0.3393698036670685
1736211521471592,-0.27702099084854126
1736211521487217,-0.21539020538330078
1736211521502842,-0.15471836924552917
1736211521518467,-0.09525945782661438
1736211521534092,-0.03724195808172226
1736211521549717,0.01916046440601349
1736211521565342,0.07383758574724197
1736211521580967,0.12673071026802063
1736211521596592,0.1778077334165573
1736211521612217,0.22703754901885986
1736211521627842,0.2743755877017975
1736211521643467,0.31976518034935
1736211521659092,0.36315110325813293
1736211521674717,0.40449780225753784
1736211521690342,0.443804532289505
1736211521705967,0.4811103940010071
1736211521721592,0.5164849758148193
1736211521737217,0.5500083565711975
1736211521752842,0.5817502737045288
1736211521768467,0.6117523908615112
1736211521784092,0.6400094628334045
1736211521799717,0.6664389371871948
1736211521815342,0.6908355951309204
1736211521830967,0.7128410339355469
1736211521846592,0.7319808602333069
1736211521862217,0.7477877736091614
1736211521877842,0.7599491477012634
1736211521893467,0.7684041261672974
1736211521909092,0.7733904719352722
1736211521924717,0.7754679322242737
1736211521940342,0.7754945755004883
1736211521955967,0.7745224237442017
1736211521971592,0.773630678653717
1736211521987217,0.773751974105835
1736211522002842,0.7755369544029236
1736211522018467,0.7792705297470093
1736211522034092,0.7848290801048279
1736211522049717,0.7916722297668457
1736211522065342,0.7988861799240112
1736211522080967,0.8052904009819031
1736211522096592,0.8095919489860535
1736211522112217,0.8105631470680237
1736211522127842,0.8072357773780823
1736211522143467,0.7990966439247131
1736211522159092,0.7862435579299927
1736211522174717,0.7694545984268188
1736211522190342,0.7501276731491089
1736211522205967,0.7300724983215332
1736211522221592,0.7111985683441162
1736211522237217,0.6951748132705688
1736211522252842,0.6831233501434326
1736211522268467,0.675417423248291
1736211522284092,0.6716599464416504
1736211522299717,0.6708430647850037
1736211522315342,0.6715986132621765
1736211522330967,0.6724448204040527
1736211522346592,0.6719881296157837
1736211522362217,0.669083297252655
1736211522377842,0.6629546880722046
1736211522393467,0.6532701849937439
1736211522409092,0.6401498317718506
1736211522424717,0.624098539352417
1736211522440342,0.6058864593505859
1736211522455967,0.5864124298095703
1736211522471592,0.5665666460990906
1736211522487217,0.5471014976501465
1736211522502842,0.5285400748252869
1736211522518467,0.511156439781189
1736211522534092,0.49501514434814453
1736211522549717,0.48002883791923523
1736211522565342,0.4660055637359619
1736211522580967,0.452680766582489
1736211522596592,0.43974339962005615
1736211522612217,0.4268653690814972
1736211522627842,0.4137325882911682
1736211522643467,0.4000717103481293
1736211522659092,0.3856721818447113
1736211522674717,0.37039873003959656
1736211522690342,0.3541881740093231
1736211522705967,0.33703675866127014
1736211522721592,0.31898853182792664
1736211522737217,0.3001219630241394
1736211522752842,0.28053247928619385
1736211522768467,0.26031729578971863
1736211522784092,0.2395872324705124
1736211522799717,0.2185320258140564
1736211522815342,0.1974591761827469
1736211522830967,0.17670509219169617
1736211522846592,0.1565008908510208
1736211522862217,0.13692736625671387
1736211522877842,0.11795629560947418
1736211522893467,0.09951838850975037
1736211522909092,0.08157314360141754
1736211522924717,0.0641668438911438
1736211522940342,0.04744946211576462
1736211522955967,0.031630899757146835
1736211522971592,0.016892381012439728
1736211522987217,0.0032944679260253906
1736211523002842,-0.009268738329410553
1736211523018467,-0.021037176251411438
1736211523034092,-0.03229266405105591
1736211523049717,-0.04327307641506195
1736211523065342,-0.05416092276573181
1736211523080967,-0.06514763832092285
1736211523096592,-0.07649059593677521
1736211523112217,-0.08848559856414795
1736211523127842,-0.10137921571731567
1736211523143467,-0.11531634628772736
1736211523159092,-0.1303679198026657
1736211523174717,-0.14658677577972412
1736211523190342,-0.16402658820152283
1736211523205967,-0.18271733820438385
1736211523221592,-0.20262202620506287
1736211523237217,-0.22359533607959747
1736211523252842,-0.24536459147930145
1736211523268467,-0.2675386071205139
1736211523284092,-0.2896345555782318
1736211523299717,-0.31112122535705566
1736211523315342,-0.33147484064102173
1736211523330967,-0.3502335250377655
1736211523346592,-0.36703768372535706
1736211523362217,-0.3816511631011963
1736211523377842,-0.39396393299102783
1736211523393467,-0.4039713442325592
1736211523409092,-0.4117155373096466
1736211523424717,-0.4172116219997406
1736211523440342,-0.4204337000846863
1736211523455967,-0.42139115929603577
1736211523471592,-0.4202303886413574
1736211523487217,-0.4172808527946472
1736211523502842,-0.41302546858787537
1736211523518467,-0.4080204367637634
1736211523534092,-0.40278005599975586
1736211523549717,-0.39762771129608154
1736211523565342,-0.39257287979125977
1736211523580967,-0.38730692863464355
1736211523596592,-0.3812811076641083
1736211523612217,-0.37373799085617065
1736211523627842,-0.36369529366493225
1736211523643467,-0.3500187397003174
1736211523659092,-0.33169645071029663
1736211523674717,-0.30830129981040955
1736211523690342,-0.28045034408569336
1736211523705967,-0.24997374415397644
1736211523721592,-0.2196447253227234
1736211523737217,-0.19257552921772003
1736211523752842,-0.17153753340244293
1736211523768467,-0.15844270586967468
1736211523784092,-0.15409411489963531
1736211523799717,-0.15818707644939423
1736211523815342,-0.16947877407073975
1736211523830967,-0.18605226278305054
1736211523846592,-0.20563577115535736
1736211523862217,-0.22593271732330322
1736211523877842,-0.24487066268920898
1736211523893467,-0.26069939136505127
1736211523909092,-0.2720198929309845
1736211523924717,-0.27787554264068604
1736211523940342,-0.27785754203796387
1736211523955967,-0.2720728814601898
1736211523971592,-0.2609626054763794
1736211523987217,-0.24512238800525665
1736211524002842,-0.22528024017810822
1736211524018467,-0.20242412388324738
1736211524034092,-0.17791876196861267
1736211524049717,-0.15346774458885193
1736211524065342,-0.13091205060482025
1736211524080967,-0.11195631325244904
1736211524096592,-0.0979200154542923
1736211524112217,-0.08960185945034027
1736211524127842,-0.08728766441345215
1736211524143467,-0.09077923744916916
1736211524159092,-0.09934350848197937
1736211524174717,-0.11168403923511505
1736211524190342,-0.12606635689735413
1736211524205967,-0.14058731496334076
1736211524221592,-0.15349483489990234
1736211524237217,-0.16346463561058044
1736211524252842,-0.16975486278533936
1736211524268467,-0.17218132317066193
1736211524284092,-0.17093247175216675
1736211524299717,-0.16634054481983185
1736211524315342,-0.15872949361801147
1736211524330967,-0.1483667492866516
1736211524346592,-0.13546642661094666
1736211524362217,-0.1201966404914856
1736211524377842,-0.10269397497177124
1736211524393467,-0.08311484754085541
1736211524409092,-0.06172903627157211
1736211524424717,-0.039011150598526
1736211524440342,-0.015675991773605347
1736211524455967,0.007359929382801056
1736211524471592,0.02907773107290268
1736211524487217,0.048492029309272766
1736211524502842,0.06479131430387497
1736211524518467,0.0774485245347023
1736211524534092,0.08628015220165253
1736211524549717,0.09144844114780426
1736211524565342,0.09340959787368774
1736211524580967,0.09281910955905914
1736211524596592,0.0904175341129303
1736211524612217,0.08692584931850433
1736211524627842,0.08297078311443329
1736211524643467,0.07904335856437683
1736211524659092,0.0754903256893158
1736211524674717,0.07254016399383545
1736211524690342,0.07034799456596375
1736211524705967,0.06903380155563354
1736211524721592,0.06870624423027039
1736211524737217,0.06947386264801025
1736211524752842,0.0714477002620697
1736211524768467,0.07474656403064728
1736211524784092,0.07949778437614441
1736211524799717,0.08580735325813293
1736211524815342,0.09370094537734985
1736211524830967,0.10307250916957855
